'Time';'ECG1';'ECG2'
'[09:00:00.000]';-0.05;-0.14
'[09:00:00.004]';-0.03;-0.12
'[09:00:00.008]';0;-0.095
'[09:00:00.012]';0.01;-0.105
'[09:00:00.016]';0;-0.12
'[09:00:00.020]';-0.02;-0.125
'[09:00:00.024]';-0.025;-0.135
'[09:00:00.028]';-0.02;-0.15
'[09:00:00.032]';0;-0.16
'[09:00:00.036]';0;-0.15
'[09:00:00.040]';0.03;-0.17
'[09:00:00.044]';0.03;-0.165
'[09:00:00.048]';0.01;-0.155
'[09:00:00.052]';-0.01;-0.155
'[09:00:00.056]';-0.01;-0.15
'[09:00:00.060]';0.01;-0.15
'[09:00:00.064]';0.025;-0.15
'[09:00:00.068]';0.03;-0.145
'[09:00:00.072]';0.05;-0.14
'[09:00:00.076]';0.05;-0.135
'[09:00:00.080]';0.05;-0.125
'[09:00:00.084]';0.055;-0.125
'[09:00:00.088]';0.065;-0.12
'[09:00:00.092]';0.07;-0.135
'[09:00:00.096]';0.045;-0.14
'[09:00:00.100]';0.015;-0.14
'[09:00:00.104]';0;-0.145
'[09:00:00.108]';0.015;-0.165
'[09:00:00.112]';0.005;-0.155
'[09:00:00.116]';0.04;-0.145
'[09:00:00.120]';0.04;-0.155
'[09:00:00.124]';0.035;-0.17
'[09:00:00.128]';0.035;-0.18
'[09:00:00.132]';0.025;-0.16
'[09:00:00.136]';0.03;-0.155
'[09:00:00.140]';0.03;-0.165
'[09:00:00.144]';0.025;-0.16
'[09:00:00.148]';0.025;-0.16
'[09:00:00.152]';0.015;-0.16
'[09:00:00.156]';0.025;-0.15
'[09:00:00.160]';0.01;-0.16
'[09:00:00.164]';0.015;-0.16
'[09:00:00.168]';0.015;-0.15
'[09:00:00.172]';0.04;-0.145
'[09:00:00.176]';0.055;-0.135
'[09:00:00.180]';0.035;-0.145
'[09:00:00.184]';0.015;-0.145
'[09:00:00.188]';0.02;-0.13
'[09:00:00.192]';0.055;-0.135
'[09:00:00.196]';0.045;-0.14
'[09:00:00.200]';0.04;-0.14
'[09:00:00.204]';0.04;-0.135
'[09:00:00.208]';0.07;-0.125
'[09:00:00.212]';0.075;-0.12
'[09:00:00.216]';0.07;-0.105
'[09:00:00.220]';0.035;-0.105
'[09:00:00.224]';0.02;-0.105
'[09:00:00.228]';0.035;-0.095
'[09:00:00.232]';0.015;-0.105
'[09:00:00.236]';-0.005;-0.105
'[09:00:00.240]';-0.04;-0.1
'[09:00:00.244]';-0.04;-0.105
'[09:00:00.248]';-0.03;-0.1
'[09:00:00.252]';-0.01;-0.105
'[09:00:00.256]';-0.02;-0.11
'[09:00:00.260]';-0.005;-0.11
'[09:00:00.264]';-0.005;-0.115
'[09:00:00.268]';-0.01;-0.105
'[09:00:00.272]';0.01;-0.115
'[09:00:00.276]';0;-0.105
'[09:00:00.280]';0.025;-0.1
'[09:00:00.284]';0.05;-0.115
'[09:00:00.288]';0.045;-0.12
'[09:00:00.292]';0.02;-0.115
'[09:00:00.296]';-0.005;-0.125
'[09:00:00.300]';0.01;-0.13
'[09:00:00.304]';0.02;-0.125
'[09:00:00.308]';0.03;-0.125
'[09:00:00.312]';0.04;-0.125
'[09:00:00.316]';0.02;-0.125
'[09:00:00.320]';0.045;-0.13
'[09:00:00.324]';0.03;-0.125
'[09:00:00.328]';0.045;-0.13
'[09:00:00.332]';0.05;-0.115
'[09:00:00.336]';0.045;-0.12
'[09:00:00.340]';0.055;-0.13
'[09:00:00.344]';0.04;-0.115
'[09:00:00.348]';0.055;-0.125
'[09:00:00.352]';0.075;-0.115
'[09:00:00.356]';0.115;-0.13
'[09:00:00.360]';0.1;-0.125
'[09:00:00.364]';0.04;-0.12
'[09:00:00.368]';-0.025;-0.13
'[09:00:00.372]';-0.015;-0.12
'[09:00:00.376]';0.01;-0.12
'[09:00:00.380]';0.03;-0.115
'[09:00:00.384]';0.035;-0.115
'[09:00:00.388]';0.01;-0.12
'[09:00:00.392]';0.01;-0.125
'[09:00:00.396]';0.01;-0.13
'[09:00:00.400]';0.035;-0.135
'[09:00:00.404]';0.06;-0.115
'[09:00:00.408]';0.04;-0.11
'[09:00:00.412]';0.02;-0.11
'[09:00:00.416]';0.005;-0.105
'[09:00:00.420]';0.005;-0.105
'[09:00:00.424]';0.015;-0.11
'[09:00:00.428]';0.015;-0.1
'[09:00:00.432]';0.02;-0.095
'[09:00:00.436]';0.01;-0.085
'[09:00:00.440]';0.05;-0.09
'[09:00:00.444]';0.04;-0.1
'[09:00:00.448]';0.055;-0.115
'[09:00:00.452]';0.085;-0.11
'[09:00:00.456]';0.06;-0.09
'[09:00:00.460]';0.05;-0.1
'[09:00:00.464]';0.025;-0.095
'[09:00:00.468]';0.03;-0.095
'[09:00:00.472]';0.03;-0.1
'[09:00:00.476]';0.035;-0.105
'[09:00:00.480]';0.05;-0.1
'[09:00:00.484]';0.09;-0.11
'[09:00:00.488]';0.08;-0.105
'[09:00:00.492]';0.065;-0.11
'[09:00:00.496]';0.06;-0.11
'[09:00:00.500]';0.05;-0.115
'[09:00:00.504]';0.04;-0.11
'[09:00:00.508]';0.015;-0.1
'[09:00:00.512]';0.015;-0.105
'[09:00:00.516]';0.02;-0.115
'[09:00:00.520]';0.07;-0.115
'[09:00:00.524]';0.1;-0.115
'[09:00:00.528]';0.04;-0.105
'[09:00:00.532]';0.04;-0.095
'[09:00:00.536]';0.08;-0.06
'[09:00:00.540]';0.095;-0.05
'[09:00:00.544]';0.005;-0.03
'[09:00:00.548]';-0.065;0.005
'[09:00:00.552]';-0.05;-0.005
'[09:00:00.556]';0.025;-0.03
'[09:00:00.560]';0.085;-0.035
'[09:00:00.564]';0.07;-0.02
'[09:00:00.568]';0.04;0.015
'[09:00:00.572]';0.02;0.025
'[09:00:00.576]';-0.07;0.045
'[09:00:00.580]';-0.255;0.05
'[09:00:00.584]';-0.375;0.06
'[09:00:00.588]';-0.37;0.07
'[09:00:00.592]';-0.32;0.05
'[09:00:00.596]';-0.25;0.02
'[09:00:00.600]';-0.14;-0.03
'[09:00:00.604]';-0.1;-0.09
'[09:00:00.608]';-0.09;-0.115
'[09:00:00.612]';-0.07;-0.11
'[09:00:00.616]';-0.02;-0.11
'[09:00:00.620]';0.02;-0.12
'[09:00:00.624]';0.045;-0.13
'[09:00:00.628]';0.07;-0.1
'[09:00:00.632]';0.05;-0.09
'[09:00:00.636]';0.04;-0.095
'[09:00:00.640]';0.045;-0.1
'[09:00:00.644]';0.06;-0.1
'[09:00:00.648]';0.05;-0.105
'[09:00:00.652]';0.07;-0.11
'[09:00:00.656]';0.075;-0.12
'[09:00:00.660]';0.095;-0.13
'[09:00:00.664]';0.11;-0.135
'[09:00:00.668]';0.095;-0.13
'[09:00:00.672]';0.055;-0.125
'[09:00:00.676]';0.025;-0.12
'[09:00:00.680]';0.04;-0.115
'[09:00:00.684]';0.08;-0.12
'[09:00:00.688]';0.08;-0.125
'[09:00:00.692]';0.07;-0.12
'[09:00:00.696]';0.085;-0.115
'[09:00:00.700]';0.085;-0.105
'[09:00:00.704]';0.1;-0.115
'[09:00:00.708]';0.1;-0.125
'[09:00:00.712]';0.1;-0.115
'[09:00:00.716]';0.105;-0.105
'[09:00:00.720]';0.105;-0.095
'[09:00:00.724]';0.115;-0.11
'[09:00:00.728]';0.155;-0.125
'[09:00:00.732]';0.22;-0.15
'[09:00:00.736]';0.21;-0.145
'[09:00:00.740]';0.14;-0.125
'[09:00:00.744]';0.11;-0.145
'[09:00:00.748]';0.13;-0.145
'[09:00:00.752]';0.14;-0.13
'[09:00:00.756]';0.195;-0.125
'[09:00:00.760]';0.155;-0.115
'[09:00:00.764]';0.05;-0.115
'[09:00:00.768]';0.015;-0.135
'[09:00:00.772]';0.03;-0.125
'[09:00:00.776]';0.065;-0.115
'[09:00:00.780]';0.085;-0.11
'[09:00:00.784]';0.09;-0.115
'[09:00:00.788]';0.1;-0.12
'[09:00:00.792]';0.095;-0.115
'[09:00:00.796]';0.085;-0.105
'[09:00:00.800]';0.095;-0.1
'[09:00:00.804]';0.075;-0.08
'[09:00:00.808]';0.06;-0.08
'[09:00:00.812]';0.08;-0.08
'[09:00:00.816]';0.075;-0.065
'[09:00:00.820]';0.095;-0.07
'[09:00:00.824]';0.1;-0.055
'[09:00:00.828]';0.09;-0.05
'[09:00:00.832]';0.085;-0.075
'[09:00:00.836]';0.09;-0.075
'[09:00:00.840]';0.105;-0.08
'[09:00:00.844]';0.145;-0.08
'[09:00:00.848]';0.12;-0.08
'[09:00:00.852]';0.1;-0.06
'[09:00:00.856]';0.08;-0.05
'[09:00:00.860]';0.085;-0.07
'[09:00:00.864]';0.025;-0.08
'[09:00:00.868]';-0.01;-0.09
'[09:00:00.872]';0.02;-0.08
'[09:00:00.876]';0.05;-0.08
'[09:00:00.880]';0.075;-0.065
'[09:00:00.884]';0.075;-0.05
'[09:00:00.888]';0.085;-0.065
'[09:00:00.892]';0.1;-0.065
'[09:00:00.896]';0.105;-0.065
'[09:00:00.900]';0.115;-0.06
'[09:00:00.904]';0.165;-0.065
'[09:00:00.908]';0.205;-0.065
'[09:00:00.912]';0.225;-0.06
'[09:00:00.916]';0.205;-0.05
'[09:00:00.920]';0.11;-0.06
'[09:00:00.924]';0.045;-0.06
'[09:00:00.928]';0.065;-0.05
'[09:00:00.932]';0.09;-0.04
'[09:00:00.936]';0.105;-0.075
'[09:00:00.940]';0.11;-0.075
'[09:00:00.944]';0.025;-0.085
'[09:00:00.948]';-0.02;-0.07
'[09:00:00.952]';-0.03;-0.085
'[09:00:00.956]';-0.02;-0.095
'[09:00:00.960]';0.01;-0.125
'[09:00:00.964]';0.055;-0.125
'[09:00:00.968]';0.07;-0.105
'[09:00:00.972]';0.08;-0.09
'[09:00:00.976]';0.085;-0.095
'[09:00:00.980]';0.09;-0.075
'[09:00:00.984]';0.08;-0.085
'[09:00:00.988]';0.095;-0.08
'[09:00:00.992]';0.11;-0.09
'[09:00:00.996]';0.14;-0.075
'[09:00:01.000]';0.09;-0.075
'[09:00:01.004]';0.08;-0.075
'[09:00:01.008]';0.1;-0.06
'[09:00:01.012]';0.095;-0.075
'[09:00:01.016]';0.08;-0.075
'[09:00:01.020]';0.09;-0.07
'[09:00:01.024]';0.125;-0.07
'[09:00:01.028]';0.135;-0.06
'[09:00:01.032]';0.065;-0.055
'[09:00:01.036]';0.055;-0.05
'[09:00:01.040]';0.06;-0.045
'[09:00:01.044]';0.065;-0.055
'[09:00:01.048]';0.07;-0.07
'[09:00:01.052]';0.115;-0.09
'[09:00:01.056]';0.15;-0.1
'[09:00:01.060]';0.105;-0.08
'[09:00:01.064]';0.065;-0.07
'[09:00:01.068]';0.07;-0.055
'[09:00:01.072]';0.06;-0.045
'[09:00:01.076]';0.055;-0.055
'[09:00:01.080]';0.085;-0.065
'[09:00:01.084]';0.135;-0.055
'[09:00:01.088]';0.155;-0.035
'[09:00:01.092]';0.125;0.01
'[09:00:01.096]';0.015;0.055
'[09:00:01.100]';-0.045;0.055
'[09:00:01.104]';-0.035;0.005
'[09:00:01.108]';0.02;-0.035
'[09:00:01.112]';0.065;-0.065
'[09:00:01.116]';0.115;-0.06
'[09:00:01.120]';0.11;-0.05
'[09:00:01.124]';0.055;-0.02
'[09:00:01.128]';-0.11;0
'[09:00:01.132]';-0.275;0.035
'[09:00:01.136]';-0.355;0.07
'[09:00:01.140]';-0.335;0.095
'[09:00:01.144]';-0.26;0.075
'[09:00:01.148]';-0.185;0.015
'[09:00:01.152]';-0.085;-0.04
'[09:00:01.156]';0.07;-0.09
'[09:00:01.160]';0.11;-0.085
'[09:00:01.164]';0.02;-0.09
'[09:00:01.168]';-0.08;-0.085
'[09:00:01.172]';-0.055;-0.085
'[09:00:01.176]';-0.01;-0.07
'[09:00:01.180]';0.05;-0.085
'[09:00:01.184]';0.09;-0.085
'[09:00:01.188]';0.1;-0.085
'[09:00:01.192]';0.07;-0.08
'[09:00:01.196]';0.04;-0.085
'[09:00:01.200]';0.02;-0.105
'[09:00:01.204]';0.035;-0.115
'[09:00:01.208]';0.06;-0.12
'[09:00:01.212]';0.055;-0.115
'[09:00:01.216]';0.07;-0.135
'[09:00:01.220]';0.065;-0.135
'[09:00:01.224]';0.08;-0.14
'[09:00:01.228]';0.065;-0.145
'[09:00:01.232]';0.08;-0.13
'[09:00:01.236]';0.075;-0.11
'[09:00:01.240]';0.065;-0.1
'[09:00:01.244]';0.055;-0.115
'[09:00:01.248]';0.04;-0.115
'[09:00:01.252]';0.035;-0.1
'[09:00:01.256]';0.065;-0.12
'[09:00:01.260]';0.065;-0.125
'[09:00:01.264]';0.095;-0.12
'[09:00:01.268]';0.105;-0.125
'[09:00:01.272]';0.105;-0.095
'[09:00:01.276]';0.08;-0.095
'[09:00:01.280]';0.065;-0.095
'[09:00:01.284]';0.03;-0.105
'[09:00:01.288]';0.015;-0.115
'[09:00:01.292]';0.02;-0.135
'[09:00:01.296]';0.065;-0.145
'[09:00:01.300]';0.105;-0.135
'[09:00:01.304]';0.075;-0.12
'[09:00:01.308]';0.04;-0.12
'[09:00:01.312]';0.04;-0.11
'[09:00:01.316]';0.08;-0.1
'[09:00:01.320]';0.12;-0.1
'[09:00:01.324]';0.125;-0.135
'[09:00:01.328]';0.1;-0.125
'[09:00:01.332]';0.055;-0.12
'[09:00:01.336]';0.01;-0.105
'[09:00:01.340]';0.01;-0.1
'[09:00:01.344]';0.045;-0.115
'[09:00:01.348]';0.075;-0.11
'[09:00:01.352]';0.09;-0.12
'[09:00:01.356]';0.075;-0.13
'[09:00:01.360]';0.07;-0.115
'[09:00:01.364]';0.05;-0.095
'[09:00:01.368]';0.05;-0.09
'[09:00:01.372]';0.065;-0.08
'[09:00:01.376]';0.065;-0.075
'[09:00:01.380]';0.08;-0.065
'[09:00:01.384]';0.085;-0.075
'[09:00:01.388]';0.115;-0.07
'[09:00:01.392]';0.145;-0.065
'[09:00:01.396]';0.15;-0.065
'[09:00:01.400]';0.05;-0.065
'[09:00:01.404]';-0.025;-0.07
'[09:00:01.408]';0.005;-0.08
'[09:00:01.412]';0.075;-0.085
'[09:00:01.416]';0.16;-0.08
'[09:00:01.420]';0.12;-0.065
'[09:00:01.424]';0.01;-0.07
'[09:00:01.428]';-0.06;-0.065
'[09:00:01.432]';-0.025;-0.06
'[09:00:01.436]';0.03;-0.06
'[09:00:01.440]';0.075;-0.04
'[09:00:01.444]';0.04;-0.075
'[09:00:01.448]';-0.025;-0.085
'[09:00:01.452]';-0.04;-0.065
'[09:00:01.456]';0;-0.07
'[09:00:01.460]';0.04;-0.075
'[09:00:01.464]';0.08;-0.075
'[09:00:01.468]';0.095;-0.065
'[09:00:01.472]';0.125;-0.055
'[09:00:01.476]';0.085;-0.065
'[09:00:01.480]';0.02;-0.1
'[09:00:01.484]';0.015;-0.115
'[09:00:01.488]';0.06;-0.1
'[09:00:01.492]';0.09;-0.095
'[09:00:01.496]';0.07;-0.08
'[09:00:01.500]';0.035;-0.075
'[09:00:01.504]';0.04;-0.09
'[09:00:01.508]';0.09;-0.08
'[09:00:01.512]';0.15;-0.08
'[09:00:01.516]';0.19;-0.08
'[09:00:01.520]';0.135;-0.07
'[09:00:01.524]';0.075;-0.05
'[09:00:01.528]';0.015;-0.05
'[09:00:01.532]';-0.05;-0.055
'[09:00:01.536]';-0.03;-0.06
'[09:00:01.540]';0;-0.065
'[09:00:01.544]';0.02;-0.075
'[09:00:01.548]';0.03;-0.07
'[09:00:01.552]';0.05;-0.07
'[09:00:01.556]';0.035;-0.075
'[09:00:01.560]';0.01;-0.065
'[09:00:01.564]';0.015;-0.07
'[09:00:01.568]';0.005;-0.055
'[09:00:01.572]';0.02;-0.055
'[09:00:01.576]';0.045;-0.065
'[09:00:01.580]';0.095;-0.065
'[09:00:01.584]';0.14;-0.08
'[09:00:01.588]';0.115;-0.095
'[09:00:01.592]';0.02;-0.05
'[09:00:01.596]';-0.065;-0.035
'[09:00:01.600]';-0.05;-0.045
'[09:00:01.604]';-0.02;-0.06
'[09:00:01.608]';0.025;-0.07
'[09:00:01.612]';0.07;-0.06
'[09:00:01.616]';0.1;-0.065
'[09:00:01.620]';0.08;-0.07
'[09:00:01.624]';0.05;-0.055
'[09:00:01.628]';0.07;-0.02
'[09:00:01.632]';0.115;-0.01
'[09:00:01.636]';0.11;-0.03
'[09:00:01.640]';0.01;-0.05
'[09:00:01.644]';0.02;-0.065
'[09:00:01.648]';0.065;-0.055
'[09:00:01.652]';0.085;-0.04
'[09:00:01.656]';0.04;-0.04
'[09:00:01.660]';0.025;-0.04
'[09:00:01.664]';0.04;-0.03
'[09:00:01.668]';0.035;-0.015
'[09:00:01.672]';0.065;0
'[09:00:01.676]';0.065;0.01
'[09:00:01.680]';0.09;0.015
'[09:00:01.684]';0.085;0.025
'[09:00:01.688]';0.04;0.025
'[09:00:01.692]';0.065;0.025
'[09:00:01.696]';0.055;0.025
'[09:00:01.700]';0.035;0.005
'[09:00:01.704]';0.07;0
'[09:00:01.708]';0.11;0
'[09:00:01.712]';0.035;0.01
'[09:00:01.716]';-0.15;0.05
'[09:00:01.720]';-0.32;0.08
'[09:00:01.724]';-0.35;0.12
'[09:00:01.728]';-0.345;0.15
'[09:00:01.732]';-0.305;0.135
'[09:00:01.736]';-0.24;0.1
'[09:00:01.740]';-0.16;0.03
'[09:00:01.744]';-0.125;-0.035
'[09:00:01.748]';-0.03;-0.055
'[09:00:01.752]';0.02;-0.075
'[09:00:01.756]';-0.02;-0.085
'[09:00:01.760]';-0.04;-0.095
'[09:00:01.764]';0.005;-0.085
'[09:00:01.768]';0.02;-0.055
'[09:00:01.772]';0.05;-0.04
'[09:00:01.776]';0.095;-0.045
'[09:00:01.780]';0.115;-0.04
'[09:00:01.784]';0.075;-0.05
'[09:00:01.788]';0.035;-0.06
'[09:00:01.792]';0.055;-0.075
'[09:00:01.796]';0.11;-0.08
'[09:00:01.800]';0.13;-0.065
'[09:00:01.804]';0.1;-0.075
'[09:00:01.808]';0.055;-0.065
'[09:00:01.812]';0.035;-0.09
'[09:00:01.816]';0.03;-0.1
'[09:00:01.820]';0.02;-0.095
'[09:00:01.824]';0.035;-0.11
'[09:00:01.828]';0.08;-0.105
'[09:00:01.832]';0.17;-0.085
'[09:00:01.836]';0.195;-0.075
'[09:00:01.840]';0.115;-0.09
'[09:00:01.844]';0.065;-0.085
'[09:00:01.848]';0.065;-0.07
'[09:00:01.852]';0.025;-0.055
'[09:00:01.856]';-0.015;-0.085
'[09:00:01.860]';0;-0.08
'[09:00:01.864]';0.055;-0.07
'[09:00:01.868]';0.055;-0.095
'[09:00:01.872]';0.03;-0.125
'[09:00:01.876]';0.025;-0.145
'[09:00:01.880]';0.065;-0.145
'[09:00:01.884]';0.085;-0.105
'[09:00:01.888]';0.095;-0.11
'[09:00:01.892]';0.105;-0.1
'[09:00:01.896]';0.09;-0.105
'[09:00:01.900]';0.095;-0.105
'[09:00:01.904]';0.185;-0.105
'[09:00:01.908]';0.27;-0.07
'[09:00:01.912]';0.13;-0.07
'[09:00:01.916]';-0.07;-0.07
'[09:00:01.920]';-0.07;-0.075
'[09:00:01.924]';0;-0.085
'[09:00:01.928]';0.07;-0.09
'[09:00:01.932]';0.085;-0.09
'[09:00:01.936]';0.04;-0.07
'[09:00:01.940]';0.04;-0.065
'[09:00:01.944]';0.055;-0.06
'[09:00:01.948]';0.085;-0.055
'[09:00:01.952]';0.03;-0.04
'[09:00:01.956]';0.005;-0.01
'[09:00:01.960]';0;-0.025
'[09:00:01.964]';0.02;-0.06
'[09:00:01.968]';0.085;-0.08
'[09:00:01.972]';0.105;-0.04
'[09:00:01.976]';0.025;-0.015
'[09:00:01.980]';-0.01;-0.005
'[09:00:01.984]';0.02;-0.025
'[09:00:01.988]';0.05;-0.045
'[09:00:01.992]';0.07;-0.06
'[09:00:01.996]';0.06;-0.045
'[09:00:02.000]';0.04;-0.015
'[09:00:02.004]';0.025;0
'[09:00:02.008]';0.025;0.015
'[09:00:02.012]';0.11;0.035
'[09:00:02.016]';0.12;0.015
'[09:00:02.020]';0.045;-0.01
'[09:00:02.024]';-0.025;-0.02
'[09:00:02.028]';-0.035;-0.005
'[09:00:02.032]';0.01;0
'[09:00:02.036]';0.055;0.01
'[09:00:02.040]';0.05;0.005
'[09:00:02.044]';0.035;0.015
'[09:00:02.048]';0.01;0.01
'[09:00:02.052]';0.035;0.01
'[09:00:02.056]';0.085;0.025
'[09:00:02.060]';0.09;0.025
'[09:00:02.064]';0.09;0
'[09:00:02.068]';0.17;0.01
'[09:00:02.072]';0.19;0.015
'[09:00:02.076]';0.035;0.035
'[09:00:02.080]';-0.07;0.02
'[09:00:02.084]';-0.005;0.015
'[09:00:02.088]';0.12;0.01
'[09:00:02.092]';0.16;0.005
'[09:00:02.096]';0.18;0.015
'[09:00:02.100]';0.1;0.045
'[09:00:02.104]';-0.015;0.045
'[09:00:02.108]';-0.08;0.055
'[09:00:02.112]';-0.07;0.075
'[09:00:02.116]';-0.03;0.08
'[09:00:02.120]';0.005;0.065
'[09:00:02.124]';0.035;0.08
'[09:00:02.128]';0.08;0.09
'[09:00:02.132]';0.07;0.09
'[09:00:02.136]';0.035;0.08
'[09:00:02.140]';0.035;0.085
'[09:00:02.144]';0.055;0.09
'[09:00:02.148]';0.06;0.115
'[09:00:02.152]';0.045;0.1
'[09:00:02.156]';0.09;0.095
'[09:00:02.160]';0.08;0.1
'[09:00:02.164]';0.05;0.11
'[09:00:02.168]';-0.02;0.12
'[09:00:02.172]';-0.01;0.09
'[09:00:02.176]';0.06;0.095
'[09:00:02.180]';0.12;0.1
'[09:00:02.184]';0.06;0.13
'[09:00:02.188]';-0.055;0.155
'[09:00:02.192]';-0.08;0.155
'[09:00:02.196]';-0.015;0.145
'[09:00:02.200]';0.1;0.145
'[09:00:02.204]';0.125;0.17
'[09:00:02.208]';0.005;0.175
'[09:00:02.212]';-0.06;0.16
'[09:00:02.216]';-0.025;0.145
'[09:00:02.220]';0.005;0.12
'[09:00:02.224]';0.04;0.125
'[09:00:02.228]';0.045;0.14
'[09:00:02.232]';0.075;0.175
'[09:00:02.236]';0.105;0.16
'[09:00:02.240]';0.08;0.135
'[09:00:02.244]';0.07;0.115
'[09:00:02.248]';0.075;0.12
'[09:00:02.252]';0.06;0.155
'[09:00:02.256]';0;0.18
'[09:00:02.260]';-0.1;0.175
'[09:00:02.264]';-0.115;0.155
'[09:00:02.268]';-0.03;0.16
'[09:00:02.272]';0.04;0.16
'[09:00:02.276]';0.115;0.15
'[09:00:02.280]';0.12;0.145
'[09:00:02.284]';0.085;0.14
'[09:00:02.288]';0.05;0.135
'[09:00:02.292]';0.07;0.15
'[09:00:02.296]';0.035;0.18
'[09:00:02.300]';-0.04;0.21
'[09:00:02.304]';-0.095;0.255
'[09:00:02.308]';-0.095;0.28
'[09:00:02.312]';-0.05;0.255
'[09:00:02.316]';0.015;0.225
'[09:00:02.320]';0.085;0.225
'[09:00:02.324]';0.165;0.24
'[09:00:02.328]';0.12;0.245
'[09:00:02.332]';-0.09;0.275
'[09:00:02.336]';-0.315;0.31
'[09:00:02.340]';-0.435;0.32
'[09:00:02.344]';-0.435;0.33
'[09:00:02.348]';-0.395;0.36
'[09:00:02.352]';-0.275;0.365
'[09:00:02.356]';-0.175;0.335
'[09:00:02.360]';-0.14;0.27
'[09:00:02.364]';-0.165;0.25
'[09:00:02.368]';-0.125;0.25
'[09:00:02.372]';-0.07;0.23
'[09:00:02.376]';-0.045;0.22
'[09:00:02.380]';-0.05;0.19
'[09:00:02.384]';-0.015;0.19
'[09:00:02.388]';0.045;0.23
'[09:00:02.392]';0.08;0.265
'[09:00:02.396]';0.04;0.265
'[09:00:02.400]';-0.02;0.25
'[09:00:02.404]';0.005;0.235
'[09:00:02.408]';0.06;0.225
'[09:00:02.412]';0.145;0.22
'[09:00:02.416]';0.195;0.225
'[09:00:02.420]';0.13;0.215
'[09:00:02.424]';0;0.225
'[09:00:02.428]';-0.045;0.25
'[09:00:02.432]';0.045;0.22
'[09:00:02.436]';0.075;0.175
'[09:00:02.440]';0.005;0.17
'[09:00:02.444]';-0.05;0.175
'[09:00:02.448]';-0.01;0.19
'[09:00:02.452]';0.045;0.205
'[09:00:02.456]';0.11;0.2
'[09:00:02.460]';0.095;0.205
'[09:00:02.464]';0.03;0.185
'[09:00:02.468]';-0.055;0.17
'[09:00:02.472]';-0.06;0.175
'[09:00:02.476]';-0.005;0.195
'[09:00:02.480]';0.015;0.185
'[09:00:02.484]';0.015;0.175
'[09:00:02.488]';0.07;0.17
'[09:00:02.492]';0.075;0.185
'[09:00:02.496]';0.15;0.18
'[09:00:02.500]';0.175;0.205
'[09:00:02.504]';0.11;0.215
'[09:00:02.508]';-0.035;0.215
'[09:00:02.512]';-0.13;0.2
'[09:00:02.516]';-0.1;0.19
'[09:00:02.520]';-0.015;0.19
'[09:00:02.524]';0.065;0.2
'[09:00:02.528]';0.065;0.185
'[09:00:02.532]';0.01;0.18
'[09:00:02.536]';-0.01;0.17
'[09:00:02.540]';0.025;0.175
'[09:00:02.544]';0.065;0.19
'[09:00:02.548]';0.105;0.205
'[09:00:02.552]';0.065;0.205
'[09:00:02.556]';-0.03;0.2
'[09:00:02.560]';0;0.2
'[09:00:02.564]';0.035;0.175
'[09:00:02.568]';0.05;0.195
'[09:00:02.572]';0.045;0.22
'[09:00:02.576]';0.01;0.22
'[09:00:02.580]';-0.02;0.225
'[09:00:02.584]';0;0.245
'[09:00:02.588]';-0.01;0.25
'[09:00:02.592]';-0.03;0.265
'[09:00:02.596]';-0.03;0.245
'[09:00:02.600]';-0.005;0.225
'[09:00:02.604]';0.055;0.215
'[09:00:02.608]';0.075;0.225
'[09:00:02.612]';0.075;0.215
'[09:00:02.616]';0.01;0.225
'[09:00:02.620]';-0.02;0.21
'[09:00:02.624]';0;0.25
'[09:00:02.628]';0.035;0.275
'[09:00:02.632]';0.085;0.285
'[09:00:02.636]';0.005;0.275
'[09:00:02.640]';-0.07;0.28
'[09:00:02.644]';-0.07;0.285
'[09:00:02.648]';-0.035;0.29
'[09:00:02.652]';-0.035;0.29
'[09:00:02.656]';-0.02;0.28
'[09:00:02.660]';0.025;0.295
'[09:00:02.664]';0.07;0.315
'[09:00:02.668]';0.09;0.31
'[09:00:02.672]';0.02;0.27
'[09:00:02.676]';-0.02;0.255
'[09:00:02.680]';-0.005;0.255
'[09:00:02.684]';0.045;0.26
'[09:00:02.688]';0.125;0.26
'[09:00:02.692]';0.125;0.265
'[09:00:02.696]';0.045;0.255
'[09:00:02.700]';-0.035;0.275
'[09:00:02.704]';-0.045;0.285
'[09:00:02.708]';-0.015;0.275
'[09:00:02.712]';0.025;0.275
'[09:00:02.716]';0.025;0.275
'[09:00:02.720]';-0.015;0.28
'[09:00:02.724]';-0.01;0.29
'[09:00:02.728]';-0.01;0.31
'[09:00:02.732]';0.03;0.31
'[09:00:02.736]';0.1;0.295
'[09:00:02.740]';0.11;0.27
'[09:00:02.744]';0;0.29
'[09:00:02.748]';-0.115;0.29
'[09:00:02.752]';-0.12;0.285
'[09:00:02.756]';-0.035;0.295
'[09:00:02.760]';0.03;0.27
'[09:00:02.764]';0.055;0.25
'[09:00:02.768]';0.025;0.235
'[09:00:02.772]';-0.005;0.22
'[09:00:02.776]';-0.015;0.235
'[09:00:02.780]';0.025;0.26
'[09:00:02.784]';0.105;0.29
'[09:00:02.788]';0.16;0.3
'[09:00:02.792]';0.16;0.285
'[09:00:02.796]';0.035;0.26
'[09:00:02.800]';-0.14;0.27
'[09:00:02.804]';-0.22;0.295
'[09:00:02.808]';-0.1;0.315
'[09:00:02.812]';-0.01;0.305
'[09:00:02.816]';0.005;0.315
'[09:00:02.820]';-0.035;0.34
'[09:00:02.824]';-0.045;0.365
'[09:00:02.828]';-0.035;0.375
'[09:00:02.832]';-0.075;0.35
'[09:00:02.836]';-0.06;0.325
'[09:00:02.840]';0;0.315
'[09:00:02.844]';0.1;0.33
'[09:00:02.848]';0.105;0.335
'[09:00:02.852]';-0.08;0.34
'[09:00:02.856]';-0.29;0.365
'[09:00:02.860]';-0.31;0.39
'[09:00:02.864]';-0.345;0.4
'[09:00:02.868]';-0.435;0.42
'[09:00:02.872]';-0.45;0.41
'[09:00:02.876]';-0.32;0.38
'[09:00:02.880]';-0.075;0.33
'[09:00:02.884]';0.02;0.295
'[09:00:02.888]';0.01;0.285
'[09:00:02.892]';-0.005;0.255
'[09:00:02.896]';-0.045;0.24
'[09:00:02.900]';-0.02;0.25
'[09:00:02.904]';-0.015;0.28
'[09:00:02.908]';-0.07;0.31
'[09:00:02.912]';-0.14;0.28
'[09:00:02.916]';0;0.24
'[09:00:02.920]';0.085;0.22
'[09:00:02.924]';0.02;0.225
'[09:00:02.928]';-0.01;0.215
'[09:00:02.932]';0.025;0.21
'[09:00:02.936]';0.02;0.195
'[09:00:02.940]';0;0.19
'[09:00:02.944]';-0.01;0.18
'[09:00:02.948]';-0.055;0.175
'[09:00:02.952]';-0.04;0.205
'[09:00:02.956]';0;0.165
'[09:00:02.960]';0.06;0.17
'[09:00:02.964]';0.155;0.165
'[09:00:02.968]';0.15;0.18
'[09:00:02.972]';0.045;0.205
'[09:00:02.976]';-0.005;0.205
'[09:00:02.980]';-0.02;0.19
'[09:00:02.984]';-0.005;0.17
'[09:00:02.988]';-0.005;0.195
'[09:00:02.992]';0.025;0.205
'[09:00:02.996]';0.025;0.195
'[09:00:03.000]';0.03;0.15
'[09:00:03.004]';0.105;0.15
'[09:00:03.008]';0.13;0.14
'[09:00:03.012]';0.01;0.13
'[09:00:03.016]';-0.04;0.125
'[09:00:03.020]';-0.015;0.125
'[09:00:03.024]';0;0.14
'[09:00:03.028]';-0.005;0.145
'[09:00:03.032]';-0.025;0.16
'[09:00:03.036]';-0.005;0.17
'[09:00:03.040]';0.005;0.14
'[09:00:03.044]';0.005;0.125
'[09:00:03.048]';0.04;0.115
'[09:00:03.052]';0.095;0.115
'[09:00:03.056]';0.145;0.145
'[09:00:03.060]';0.105;0.15
'[09:00:03.064]';-0.045;0.15
'[09:00:03.068]';-0.14;0.155
'[09:00:03.072]';-0.095;0.145
'[09:00:03.076]';-0.005;0.155
'[09:00:03.080]';0.025;0.155
'[09:00:03.084]';0;0.15
'[09:00:03.088]';-0.02;0.165
'[09:00:03.092]';-0.035;0.175
'[09:00:03.096]';-0.065;0.17
'[09:00:03.100]';-0.025;0.15
'[09:00:03.104]';0.01;0.14
'[09:00:03.108]';0.07;0.155
'[09:00:03.112]';0.035;0.165
'[09:00:03.116]';-0.03;0.145
'[09:00:03.120]';-0.035;0.085
'[09:00:03.124]';0;0.085
'[09:00:03.128]';-0.005;0.155
'[09:00:03.132]';-0.005;0.165
'[09:00:03.136]';0.015;0.17
'[09:00:03.140]';0.005;0.17
'[09:00:03.144]';-0.005;0.15
'[09:00:03.148]';0.025;0.14
'[09:00:03.152]';0.05;0.14
'[09:00:03.156]';0.075;0.145
'[09:00:03.160]';0.06;0.12
'[09:00:03.164]';-0.01;0.1
'[09:00:03.168]';-0.065;0.105
'[09:00:03.172]';0;0.05
'[09:00:03.176]';0.125;0.07
'[09:00:03.180]';0.08;0.165
'[09:00:03.184]';-0.085;0.17
'[09:00:03.188]';-0.16;0.14
'[09:00:03.192]';-0.115;0.165
'[09:00:03.196]';-0.07;0.165
'[09:00:03.200]';-0.02;0.13
'[09:00:03.204]';0;0.11
'[09:00:03.208]';0.03;0.13
'[09:00:03.212]';0.04;0.155
'[09:00:03.216]';-0.005;0.155
'[09:00:03.220]';-0.01;0.13
'[09:00:03.224]';0;0.085
'[09:00:03.228]';0.02;0.07
'[09:00:03.232]';0.065;0.045
'[09:00:03.236]';0.08;0.045
'[09:00:03.240]';0.095;0.06
'[09:00:03.244]';0.09;0.07
'[09:00:03.248]';0.025;0.075
'[09:00:03.252]';-0.045;0.09
'[09:00:03.256]';-0.06;0.09
'[09:00:03.260]';-0.02;0.095
'[09:00:03.264]';0.025;0.105
'[09:00:03.268]';0.095;0.105
'[09:00:03.272]';0.165;0.085
'[09:00:03.276]';0.14;0.05
'[09:00:03.280]';0.055;0.055
'[09:00:03.284]';-0.055;0.05
'[09:00:03.288]';-0.11;0.065
'[09:00:03.292]';-0.03;0.075
'[09:00:03.296]';0.06;0.085
'[09:00:03.300]';-0.01;0.09
'[09:00:03.304]';-0.06;0.075
'[09:00:03.308]';-0.05;0.055
'[09:00:03.312]';-0.02;0.07
'[09:00:03.316]';-0.02;0.06
'[09:00:03.320]';0.02;0.055
'[09:00:03.324]';0.03;0.08
'[09:00:03.328]';0;0.07
'[09:00:03.332]';-0.03;0.075
'[09:00:03.336]';-0.02;0.085
'[09:00:03.340]';-0.005;0.135
'[09:00:03.344]';0.015;0.15
'[09:00:03.348]';0.045;0.125
'[09:00:03.352]';0.04;0.095
'[09:00:03.356]';0.005;0.095
'[09:00:03.360]';-0.01;0.12
'[09:00:03.364]';-0.015;0.135
'[09:00:03.368]';-0.05;0.145
'[09:00:03.372]';-0.15;0.145
'[09:00:03.376]';-0.295;0.14
'[09:00:03.380]';-0.36;0.155
'[09:00:03.384]';-0.33;0.185
'[09:00:03.388]';-0.29;0.18
'[09:00:03.392]';-0.2;0.15
'[09:00:03.396]';-0.125;0.105
'[09:00:03.400]';-0.075;0.08
'[09:00:03.404]';-0.1;0.075
'[09:00:03.408]';-0.14;0.09
'[09:00:03.412]';-0.1;0.055
'[09:00:03.416]';-0.01;0.01
'[09:00:03.420]';0.16;0
'[09:00:03.424]';0.185;0.025
'[09:00:03.428]';0.045;0.075
'[09:00:03.432]';-0.02;0.07
'[09:00:03.436]';0.075;0.065
'[09:00:03.440]';0.21;0.04
'[09:00:03.444]';0.13;0.02
'[09:00:03.448]';-0.02;-0.01
'[09:00:03.452]';-0.085;-0.02
'[09:00:03.456]';-0.04;-0.04
'[09:00:03.460]';0.04;-0.04
'[09:00:03.464]';0.13;-0.02
'[09:00:03.468]';0.12;-0.015
'[09:00:03.472]';0.065;0
'[09:00:03.476]';0.035;0.01
'[09:00:03.480]';0.07;0
'[09:00:03.484]';0.1;-0.015
'[09:00:03.488]';0.105;-0.03
'[09:00:03.492]';0.09;-0.035
'[09:00:03.496]';0.105;-0.02
'[09:00:03.500]';0.18;0.015
'[09:00:03.504]';0.2;0.01
'[09:00:03.508]';0.205;-0.02
'[09:00:03.512]';0.18;-0.05
'[09:00:03.516]';0.12;-0.02
'[09:00:03.520]';0.135;0.01
'[09:00:03.524]';0.15;0
'[09:00:03.528]';0.06;0.01
'[09:00:03.532]';0.005;-0.015
'[09:00:03.536]';0.03;-0.06
'[09:00:03.540]';0.045;-0.105
'[09:00:03.544]';0.045;-0.1
'[09:00:03.548]';0.075;-0.09
'[09:00:03.552]';0.085;-0.07
'[09:00:03.556]';0.09;-0.075
'[09:00:03.560]';0.085;-0.065
'[09:00:03.564]';0.09;-0.065
'[09:00:03.568]';0.075;-0.065
'[09:00:03.572]';0.065;-0.06
'[09:00:03.576]';0.075;-0.065
'[09:00:03.580]';0.085;-0.07
'[09:00:03.584]';0.1;-0.075
'[09:00:03.588]';0.065;-0.065
'[09:00:03.592]';0.025;-0.06
'[09:00:03.596]';0.035;-0.065
'[09:00:03.600]';0.125;-0.07
'[09:00:03.604]';0.165;-0.08
'[09:00:03.608]';0.095;-0.07
'[09:00:03.612]';-0.005;-0.03
'[09:00:03.616]';-0.025;-0.03
'[09:00:03.620]';0.105;-0.03
'[09:00:03.624]';0.15;-0.02
'[09:00:03.628]';0.06;-0.035
'[09:00:03.632]';-0.035;-0.04
'[09:00:03.636]';-0.025;-0.065
'[09:00:03.640]';0.015;-0.07
'[09:00:03.644]';0.065;-0.07
'[09:00:03.648]';0.105;-0.055
'[09:00:03.652]';0.11;-0.04
'[09:00:03.656]';0.09;-0.03
'[09:00:03.660]';0.05;-0.025
'[09:00:03.664]';0.04;-0.04
'[09:00:03.668]';0.055;-0.02
'[09:00:03.672]';0.075;-0.015
'[09:00:03.676]';0.125;-0.02
'[09:00:03.680]';0.195;-0.035
'[09:00:03.684]';0.175;-0.04
'[09:00:03.688]';0.085;-0.05
'[09:00:03.692]';0.05;-0.065
'[09:00:03.696]';0.09;-0.04
'[09:00:03.700]';0.13;-0.065
'[09:00:03.704]';0.08;-0.05
'[09:00:03.708]';-0.06;-0.015
'[09:00:03.712]';-0.04;-0.015
'[09:00:03.716]';0.075;-0.03
'[09:00:03.720]';0.215;-0.005
'[09:00:03.724]';0.14;-0.005
'[09:00:03.728]';-0.02;-0.025
'[09:00:03.732]';-0.06;-0.04
'[09:00:03.736]';0.02;-0.065
'[09:00:03.740]';0.125;-0.055
'[09:00:03.744]';0.22;-0.04
'[09:00:03.748]';0.225;-0.055
'[09:00:03.752]';0.125;-0.06
'[09:00:03.756]';0.07;-0.07
'[09:00:03.760]';0.05;-0.06
'[09:00:03.764]';0.055;-0.055
'[09:00:03.768]';0.12;-0.065
'[09:00:03.772]';0.2;-0.065
'[09:00:03.776]';0.135;-0.055
'[09:00:03.780]';0.02;-0.05
'[09:00:03.784]';-0.01;-0.04
'[09:00:03.788]';0.085;-0.03
'[09:00:03.792]';0.125;-0.025
'[09:00:03.796]';0.075;-0.045
'[09:00:03.800]';0.065;-0.07
'[09:00:03.804]';0.13;-0.055
'[09:00:03.808]';0.105;-0.045
'[09:00:03.812]';0.005;-0.015
'[09:00:03.816]';0.025;-0.025
'[09:00:03.820]';0.135;-0.02
'[09:00:03.824]';0.195;-0.02
'[09:00:03.828]';0.19;0.01
'[09:00:03.832]';0.11;0.035
'[09:00:03.836]';0;0.04
'[09:00:03.840]';-0.065;0.02
'[09:00:03.844]';-0.02;-0.015
'[09:00:03.848]';0.1;-0.015
'[09:00:03.852]';0.195;-0.015
'[09:00:03.856]';0.14;-0.02
'[09:00:03.860]';0.04;-0.02
'[09:00:03.864]';-0.055;-0.01
'[09:00:03.868]';-0.185;0.01
'[09:00:03.872]';-0.345;0.05
'[09:00:03.876]';-0.425;0.075
'[09:00:03.880]';-0.36;0.065
'[09:00:03.884]';-0.26;0.055
'[09:00:03.888]';-0.12;0.04
'[09:00:03.892]';-0.02;-0.005
'[09:00:03.896]';0.01;-0.04
'[09:00:03.900]';-0.01;-0.055
'[09:00:03.904]';-0.035;-0.08
'[09:00:03.908]';-0.01;-0.095
'[09:00:03.912]';0.005;-0.075
'[09:00:03.916]';0.075;-0.04
'[09:00:03.920]';0.145;-0.05
'[09:00:03.924]';0.18;-0.085
'[09:00:03.928]';0.135;-0.105
'[09:00:03.932]';0.06;-0.115
'[09:00:03.936]';0;-0.105
'[09:00:03.940]';-0.04;-0.12
'[09:00:03.944]';0.015;-0.13
'[09:00:03.948]';0.14;-0.145
'[09:00:03.952]';0.17;-0.14
'[09:00:03.956]';0.07;-0.14
'[09:00:03.960]';0.025;-0.155
'[09:00:03.964]';0.05;-0.155
'[09:00:03.968]';0.08;-0.145
'[09:00:03.972]';0.155;-0.14
'[09:00:03.976]';0.155;-0.165
'[09:00:03.980]';0.105;-0.165
'[09:00:03.984]';0.055;-0.16
'[09:00:03.988]';0.05;-0.145
'[09:00:03.992]';0.05;-0.14
'[09:00:03.996]';0.165;-0.145
'[09:00:04.000]';0.245;-0.18
'[09:00:04.004]';0.15;-0.18
'[09:00:04.008]';-0.005;-0.185
'[09:00:04.012]';-0.045;-0.16
'[09:00:04.016]';-0.04;-0.15
'[09:00:04.020]';0.005;-0.155
'[09:00:04.024]';0.055;-0.15
'[09:00:04.028]';0.085;-0.19
'[09:00:04.032]';0.09;-0.22
'[09:00:04.036]';0.04;-0.215
'[09:00:04.040]';-0.005;-0.19
'[09:00:04.044]';0;-0.17
'[09:00:04.048]';0.035;-0.165
'[09:00:04.052]';0.065;-0.17
'[09:00:04.056]';0.085;-0.19
'[09:00:04.060]';0.115;-0.195
'[09:00:04.064]';0.185;-0.185
'[09:00:04.068]';0.2;-0.18
'[09:00:04.072]';0.035;-0.17
'[09:00:04.076]';-0.03;-0.17
'[09:00:04.080]';0;-0.16
'[09:00:04.084]';0.055;-0.155
'[09:00:04.088]';0.06;-0.145
'[09:00:04.092]';0.05;-0.15
'[09:00:04.096]';0.07;-0.145
'[09:00:04.100]';0.155;-0.14
'[09:00:04.104]';0.125;-0.12
'[09:00:04.108]';0.015;-0.11
'[09:00:04.112]';-0.045;-0.13
'[09:00:04.116]';-0.005;-0.135
'[09:00:04.120]';0.035;-0.145
'[09:00:04.124]';0.09;-0.16
'[09:00:04.128]';0.15;-0.185
'[09:00:04.132]';0.235;-0.2
'[09:00:04.136]';0.205;-0.17
'[09:00:04.140]';0.075;-0.155
'[09:00:04.144]';-0.05;-0.14
'[09:00:04.148]';-0.105;-0.145
'[09:00:04.152]';-0.08;-0.145
'[09:00:04.156]';-0.04;-0.14
'[09:00:04.160]';0.015;-0.13
'[09:00:04.164]';0.07;-0.145
'[09:00:04.168]';0.125;-0.15
'[09:00:04.172]';0.095;-0.155
'[09:00:04.176]';0;-0.16
'[09:00:04.180]';-0.03;-0.14
'[09:00:04.184]';-0.015;-0.155
'[09:00:04.188]';0;-0.17
'[09:00:04.192]';0.025;-0.18
'[09:00:04.196]';0.05;-0.16
'[09:00:04.200]';0.075;-0.145
'[09:00:04.204]';0.09;-0.135
'[09:00:04.208]';0.165;-0.15
'[09:00:04.212]';0.165;-0.185
'[09:00:04.216]';0.11;-0.175
'[09:00:04.220]';0.065;-0.15
'[09:00:04.224]';0.06;-0.13
'[09:00:04.228]';0;-0.135
'[09:00:04.232]';-0.05;-0.14
'[09:00:04.236]';0.02;-0.185
'[09:00:04.240]';0.085;-0.19
'[09:00:04.244]';0.135;-0.2
'[09:00:04.248]';0.08;-0.165
'[09:00:04.252]';0.055;-0.155
'[09:00:04.256]';0.06;-0.155
'[09:00:04.260]';0.07;-0.155
'[09:00:04.264]';0.1;-0.165
'[09:00:04.268]';0.13;-0.185
'[09:00:04.272]';0.155;-0.195
'[09:00:04.276]';0.09;-0.195
'[09:00:04.280]';0;-0.2
'[09:00:04.284]';0.03;-0.195
'[09:00:04.288]';0.065;-0.175
'[09:00:04.292]';0.095;-0.185
'[09:00:04.296]';0.075;-0.195
'[09:00:04.300]';0.045;-0.215
'[09:00:04.304]';0.035;-0.24
'[09:00:04.308]';0.055;-0.22
'[09:00:04.312]';-0.005;-0.19
'[09:00:04.316]';-0.035;-0.16
'[09:00:04.320]';0;-0.145
'[09:00:04.324]';0.025;-0.115
'[09:00:04.328]';0.05;-0.075
'[09:00:04.332]';0.065;-0.065
'[09:00:04.336]';0.11;-0.05
'[09:00:04.340]';0.115;-0.03
'[09:00:04.344]';0.165;-0.04
'[09:00:04.348]';0.245;-0.055
'[09:00:04.352]';0.215;-0.06
'[09:00:04.356]';0.11;-0.04
'[09:00:04.360]';0.175;-0.075
'[09:00:04.364]';0.3;-0.15
'[09:00:04.368]';0.345;-0.225
'[09:00:04.372]';0.355;-0.25
'[09:00:04.376]';0.415;-0.295
'[09:00:04.380]';0.485;-0.355
'[09:00:04.384]';0.56;-0.43
'[09:00:04.388]';0.74;-0.485
'[09:00:04.392]';0.87;-0.52
'[09:00:04.396]';0.845;-0.525
'[09:00:04.400]';0.74;-0.51
'[09:00:04.404]';0.615;-0.445
'[09:00:04.408]';0.495;-0.375
'[09:00:04.412]';0.35;-0.295
'[09:00:04.416]';0.17;-0.245
'[09:00:04.420]';0.065;-0.24
'[09:00:04.424]';0.015;-0.24
'[09:00:04.428]';-0.005;-0.225
'[09:00:04.432]';-0.045;-0.22
'[09:00:04.436]';-0.055;-0.22
'[09:00:04.440]';-0.02;-0.205
'[09:00:04.444]';0.03;-0.2
'[09:00:04.448]';-0.01;-0.205
'[09:00:04.452]';-0.12;-0.215
'[09:00:04.456]';-0.15;-0.22
'[09:00:04.460]';-0.11;-0.2
'[09:00:04.464]';-0.04;-0.215
'[09:00:04.468]';0.035;-0.21
'[09:00:04.472]';0.07;-0.205
'[09:00:04.476]';-0.045;-0.205
'[09:00:04.480]';-0.155;-0.215
'[09:00:04.484]';-0.18;-0.21
'[09:00:04.488]';-0.125;-0.215
'[09:00:04.492]';-0.09;-0.225
'[09:00:04.496]';-0.065;-0.215
'[09:00:04.500]';0;-0.2
'[09:00:04.504]';-0.01;-0.2
'[09:00:04.508]';-0.1;-0.18
'[09:00:04.512]';-0.16;-0.18
'[09:00:04.516]';-0.135;-0.195
'[09:00:04.520]';-0.11;-0.215
'[09:00:04.524]';-0.075;-0.225
'[09:00:04.528]';-0.065;-0.205
'[09:00:04.532]';-0.13;-0.185
'[09:00:04.536]';-0.16;-0.18
'[09:00:04.540]';-0.14;-0.195
'[09:00:04.544]';-0.13;-0.19
'[09:00:04.548]';-0.185;-0.19
'[09:00:04.552]';-0.24;-0.195
'[09:00:04.556]';-0.215;-0.19
'[09:00:04.560]';-0.16;-0.19
'[09:00:04.564]';-0.17;-0.16
'[09:00:04.568]';-0.24;-0.1
'[09:00:04.572]';-0.27;-0.115
'[09:00:04.576]';-0.26;-0.135
'[09:00:04.580]';-0.225;-0.14
'[09:00:04.584]';-0.22;-0.15
'[09:00:04.588]';-0.225;-0.155
'[09:00:04.592]';-0.23;-0.155
'[09:00:04.596]';-0.23;-0.165
'[09:00:04.600]';-0.19;-0.155
'[09:00:04.604]';-0.14;-0.135
'[09:00:04.608]';-0.115;-0.14
'[09:00:04.612]';-0.175;-0.145
'[09:00:04.616]';-0.21;-0.16
'[09:00:04.620]';-0.21;-0.18
'[09:00:04.624]';-0.185;-0.18
'[09:00:04.628]';-0.145;-0.175
'[09:00:04.632]';-0.15;-0.175
'[09:00:04.636]';-0.175;-0.175
'[09:00:04.640]';-0.12;-0.165
'[09:00:04.644]';-0.095;-0.17
'[09:00:04.648]';-0.06;-0.205
'[09:00:04.652]';-0.02;-0.215
'[09:00:04.656]';-0.02;-0.215
'[09:00:04.660]';0;-0.21
'[09:00:04.664]';0.01;-0.225
'[09:00:04.668]';-0.02;-0.235
'[09:00:04.672]';-0.005;-0.235
'[09:00:04.676]';0.04;-0.24
'[09:00:04.680]';0.04;-0.235
'[09:00:04.684]';-0.005;-0.24
'[09:00:04.688]';0.04;-0.235
'[09:00:04.692]';0.16;-0.215
'[09:00:04.696]';0.13;-0.2
'[09:00:04.700]';0.085;-0.2
'[09:00:04.704]';0.07;-0.235
'[09:00:04.708]';0.02;-0.26
'[09:00:04.712]';0.045;-0.26
'[09:00:04.716]';0.09;-0.25
'[09:00:04.720]';0.105;-0.23
'[09:00:04.724]';0.1;-0.22
'[09:00:04.728]';0.045;-0.23
'[09:00:04.732]';0;-0.235
'[09:00:04.736]';-0.01;-0.255
'[09:00:04.740]';0.05;-0.26
'[09:00:04.744]';0.095;-0.265
'[09:00:04.748]';0.03;-0.255
'[09:00:04.752]';-0.06;-0.25
'[09:00:04.756]';-0.04;-0.24
'[09:00:04.760]';0.005;-0.235
'[09:00:04.764]';0.03;-0.225
'[09:00:04.768]';0.02;-0.21
'[09:00:04.772]';0.025;-0.2
'[09:00:04.776]';0.04;-0.215
'[09:00:04.780]';0.045;-0.22
'[09:00:04.784]';0.06;-0.22
'[09:00:04.788]';0.105;-0.225
'[09:00:04.792]';0.12;-0.23
'[09:00:04.796]';0.13;-0.24
'[09:00:04.800]';0.095;-0.245
'[09:00:04.804]';0.025;-0.24
'[09:00:04.808]';-0.01;-0.24
'[09:00:04.812]';0.02;-0.23
'[09:00:04.816]';0.05;-0.24
'[09:00:04.820]';0.08;-0.225
'[09:00:04.824]';0.065;-0.23
'[09:00:04.828]';0.055;-0.215
'[09:00:04.832]';0.04;-0.21
'[09:00:04.836]';0.04;-0.24
'[09:00:04.840]';0.04;-0.24
'[09:00:04.844]';0.05;-0.25
'[09:00:04.848]';0.035;-0.255
'[09:00:04.852]';0.06;-0.245
'[09:00:04.856]';0.13;-0.215
'[09:00:04.860]';0.125;-0.23
'[09:00:04.864]';0.065;-0.24
'[09:00:04.868]';0.015;-0.24
'[09:00:04.872]';0.025;-0.245
'[09:00:04.876]';0.045;-0.24
'[09:00:04.880]';0.045;-0.24
'[09:00:04.884]';0.015;-0.24
'[09:00:04.888]';0;-0.235
'[09:00:04.892]';0.03;-0.24
'[09:00:04.896]';0.09;-0.21
'[09:00:04.900]';0.055;-0.185
'[09:00:04.904]';-0.015;-0.135
'[09:00:04.908]';-0.065;-0.125
'[09:00:04.912]';-0.06;-0.14
'[09:00:04.916]';0;-0.16
'[09:00:04.920]';0.065;-0.17
'[09:00:04.924]';0.095;-0.18
'[09:00:04.928]';0.065;-0.18
'[09:00:04.932]';-0.025;-0.17
'[09:00:04.936]';-0.16;-0.135
'[09:00:04.940]';-0.29;-0.11
'[09:00:04.944]';-0.305;-0.105
'[09:00:04.948]';-0.22;-0.105
'[09:00:04.952]';-0.22;-0.11
'[09:00:04.956]';-0.23;-0.11
'[09:00:04.960]';-0.16;-0.145
'[09:00:04.964]';-0.085;-0.185
'[09:00:04.968]';-0.015;-0.215
'[09:00:04.972]';0;-0.2
'[09:00:04.976]';-0.015;-0.23
'[09:00:04.980]';0.01;-0.245
'[09:00:04.984]';0.06;-0.225
'[09:00:04.988]';0.13;-0.185
'[09:00:04.992]';0.14;-0.16
'[09:00:04.996]';0.065;-0.16
'[09:00:05.000]';-0.02;-0.195
'[09:00:05.004]';0;-0.235
'[09:00:05.008]';0.035;-0.265
'[09:00:05.012]';0.05;-0.29
'[09:00:05.016]';0.045;-0.315
'[09:00:05.020]';0.105;-0.325
'[09:00:05.024]';0.15;-0.33
'[09:00:05.028]';0.17;-0.33
'[09:00:05.032]';0.18;-0.35
'[09:00:05.036]';0.17;-0.355
'[09:00:05.040]';0.095;-0.34
'[09:00:05.044]';0.035;-0.32
'[09:00:05.048]';0.015;-0.3
'[09:00:05.052]';0.01;-0.3
'[09:00:05.056]';0.04;-0.31
'[09:00:05.060]';0.05;-0.31
'[09:00:05.064]';0.095;-0.33
'[09:00:05.068]';0.17;-0.33
'[09:00:05.072]';0.175;-0.32
'[09:00:05.076]';0.075;-0.315
'[09:00:05.080]';-0.02;-0.3
'[09:00:05.084]';0.055;-0.31
'[09:00:05.088]';0.17;-0.33
'[09:00:05.092]';0.175;-0.34
'[09:00:05.096]';0.125;-0.32
'[09:00:05.100]';0.045;-0.305
'[09:00:05.104]';0.04;-0.29
'[09:00:05.108]';0.12;-0.31
'[09:00:05.112]';0.2;-0.35
'[09:00:05.116]';0.235;-0.37
'[09:00:05.120]';0.205;-0.35
'[09:00:05.124]';0.21;-0.34
'[09:00:05.128]';0.165;-0.345
'[09:00:05.132]';0.02;-0.36
'[09:00:05.136]';-0.035;-0.35
'[09:00:05.140]';0.015;-0.35
'[09:00:05.144]';0.085;-0.33
'[09:00:05.148]';0.07;-0.315
'[09:00:05.152]';-0.01;-0.315
'[09:00:05.156]';-0.025;-0.32
'[09:00:05.160]';0.01;-0.34
'[09:00:05.164]';0.03;-0.38
'[09:00:05.168]';0.055;-0.39
'[09:00:05.172]';0.065;-0.37
'[09:00:05.176]';0.075;-0.355
'[09:00:05.180]';0.085;-0.345
'[09:00:05.184]';0.1;-0.335
'[09:00:05.188]';0.07;-0.31
'[09:00:05.192]';0.015;-0.3
'[09:00:05.196]';-0.015;-0.295
'[09:00:05.200]';0.005;-0.295
'[09:00:05.204]';0.045;-0.3
'[09:00:05.208]';0.05;-0.29
'[09:00:05.212]';0.05;-0.285
'[09:00:05.216]';0.05;-0.285
'[09:00:05.220]';0.095;-0.29
'[09:00:05.224]';0.14;-0.28
'[09:00:05.228]';0.125;-0.29
'[09:00:05.232]';0.055;-0.275
'[09:00:05.236]';0.005;-0.285
'[09:00:05.240]';0.02;-0.26
'[09:00:05.244]';0.025;-0.29
'[09:00:05.248]';0.03;-0.285
'[09:00:05.252]';0.05;-0.275
'[09:00:05.256]';0.055;-0.285
'[09:00:05.260]';0.08;-0.285
'[09:00:05.264]';0.095;-0.295
'[09:00:05.268]';0.09;-0.295
'[09:00:05.272]';0.105;-0.295
'[09:00:05.276]';0.025;-0.28
'[09:00:05.280]';-0.02;-0.28
'[09:00:05.284]';-0.055;-0.285
'[09:00:05.288]';-0.025;-0.285
'[09:00:05.292]';0.015;-0.295
'[09:00:05.296]';0.05;-0.295
'[09:00:05.300]';0.04;-0.295
'[09:00:05.304]';0.03;-0.3
'[09:00:05.308]';-0.005;-0.31
'[09:00:05.312]';0;-0.31
'[09:00:05.316]';0;-0.31
'[09:00:05.320]';-0.005;-0.305
'[09:00:05.324]';0.01;-0.295
'[09:00:05.328]';0.035;-0.275
'[09:00:05.332]';0.04;-0.265
'[09:00:05.336]';0.045;-0.26
'[09:00:05.340]';0.045;-0.285
'[09:00:05.344]';0.04;-0.32
'[09:00:05.348]';0.055;-0.32
'[09:00:05.352]';0.12;-0.295
'[09:00:05.356]';0.16;-0.28
'[09:00:05.360]';0.165;-0.28
'[09:00:05.364]';0.09;-0.29
'[09:00:05.368]';0.09;-0.285
'[09:00:05.372]';0.11;-0.285
'[09:00:05.376]';0.08;-0.265
'[09:00:05.380]';0.025;-0.245
'[09:00:05.384]';-0.05;-0.26
'[09:00:05.388]';-0.055;-0.29
'[09:00:05.392]';0.01;-0.31
'[09:00:05.396]';0.08;-0.3
'[09:00:05.400]';0.115;-0.3
'[09:00:05.404]';0.075;-0.3
'[09:00:05.408]';0.015;-0.29
'[09:00:05.412]';0.015;-0.275
'[09:00:05.416]';0.03;-0.275
'[09:00:05.420]';0.03;-0.29
'[09:00:05.424]';0.05;-0.305
'[09:00:05.428]';0.04;-0.31
'[09:00:05.432]';0.005;-0.29
'[09:00:05.436]';0.015;-0.29
'[09:00:05.440]';0.07;-0.28
'[09:00:05.444]';0.055;-0.275
'[09:00:05.448]';0.005;-0.26
'[09:00:05.452]';0.07;-0.235
'[09:00:05.456]';0.185;-0.17
'[09:00:05.460]';0.165;-0.125
'[09:00:05.464]';0.01;-0.155
'[09:00:05.468]';-0.04;-0.21
'[09:00:05.472]';0.085;-0.26
'[09:00:05.476]';0.08;-0.27
'[09:00:05.480]';-0.015;-0.245
'[09:00:05.484]';-0.1;-0.24
'[09:00:05.488]';-0.16;-0.21
'[09:00:05.492]';-0.275;-0.18
'[09:00:05.496]';-0.375;-0.15
'[09:00:05.500]';-0.41;-0.12
'[09:00:05.504]';-0.34;-0.135
'[09:00:05.508]';-0.25;-0.155
'[09:00:05.512]';-0.155;-0.17
'[09:00:05.516]';-0.055;-0.215
'[09:00:05.520]';-0.01;-0.2
'[09:00:05.524]';0.03;-0.21
'[09:00:05.528]';0.035;-0.215
'[09:00:05.532]';0.09;-0.23
'[09:00:05.536]';0.11;-0.265
'[09:00:05.540]';0.015;-0.275
'[09:00:05.544]';-0.085;-0.27
'[09:00:05.548]';-0.07;-0.295
'[09:00:05.552]';0;-0.31
'[09:00:05.556]';0.06;-0.325
'[09:00:05.560]';0.125;-0.325
'[09:00:05.564]';0.1;-0.36
'[09:00:05.568]';0.08;-0.37
'[09:00:05.572]';0.14;-0.36
'[09:00:05.576]';0.195;-0.325
'[09:00:05.580]';0.145;-0.295
'[09:00:05.584]';0;-0.285
'[09:00:05.588]';-0.07;-0.31
'[09:00:05.592]';-0.06;-0.35
'[09:00:05.596]';-0.04;-0.37
'[09:00:05.600]';0.015;-0.36
'[09:00:05.604]';0.095;-0.345
'[09:00:05.608]';0.165;-0.32
'[09:00:05.612]';0.19;-0.35
'[09:00:05.616]';0.05;-0.38
'[09:00:05.620]';-0.04;-0.35
'[09:00:05.624]';-0.02;-0.325
'[09:00:05.628]';0.02;-0.345
'[09:00:05.632]';0.045;-0.37
'[09:00:05.636]';0.12;-0.395
'[09:00:05.640]';0.125;-0.385
'[09:00:05.644]';0.065;-0.365
'[09:00:05.648]';0.075;-0.355
'[09:00:05.652]';0.12;-0.34
'[09:00:05.656]';0.14;-0.35
'[09:00:05.660]';0.125;-0.355
'[09:00:05.664]';0.04;-0.375
'[09:00:05.668]';-0.045;-0.39
'[09:00:05.672]';-0.08;-0.39
'[09:00:05.676]';-0.04;-0.4
'[09:00:05.680]';0.02;-0.365
'[09:00:05.684]';0.07;-0.335
'[09:00:05.688]';0.195;-0.35
'[09:00:05.692]';0.19;-0.375
'[09:00:05.696]';0.05;-0.425
'[09:00:05.700]';-0.05;-0.42
'[09:00:05.704]';-0.065;-0.41
'[09:00:05.708]';0;-0.375
'[09:00:05.712]';0;-0.36
'[09:00:05.716]';-0.03;-0.38
'[09:00:05.720]';-0.025;-0.375
'[09:00:05.724]';0.07;-0.345
'[09:00:05.728]';0.095;-0.34
'[09:00:05.732]';0.035;-0.32
'[09:00:05.736]';0.015;-0.33
'[09:00:05.740]';0.065;-0.32
'[09:00:05.744]';0.135;-0.36
'[09:00:05.748]';0.03;-0.365
'[09:00:05.752]';-0.09;-0.365
'[09:00:05.756]';-0.09;-0.35
'[09:00:05.760]';-0.035;-0.365
'[09:00:05.764]';0.03;-0.345
'[09:00:05.768]';0.185;-0.335
'[09:00:05.772]';0.245;-0.33
'[09:00:05.776]';0.045;-0.325
'[09:00:05.780]';-0.12;-0.33
'[09:00:05.784]';-0.095;-0.315
'[09:00:05.788]';0.005;-0.335
'[09:00:05.792]';0.02;-0.345
'[09:00:05.796]';0;-0.385
'[09:00:05.800]';0.025;-0.41
'[09:00:05.804]';0.09;-0.39
'[09:00:05.808]';0.055;-0.385
'[09:00:05.812]';-0.01;-0.365
'[09:00:05.816]';-0.065;-0.37
'[09:00:05.820]';-0.045;-0.375
'[09:00:05.824]';0.01;-0.365
'[09:00:05.828]';0.105;-0.37
'[09:00:05.832]';0.165;-0.345
'[09:00:05.836]';0.085;-0.305
'[09:00:05.840]';-0.03;-0.29
'[09:00:05.844]';-0.015;-0.36
'[09:00:05.848]';0.09;-0.385
'[09:00:05.852]';0.09;-0.39
'[09:00:05.856]';-0.015;-0.365
'[09:00:05.860]';-0.075;-0.365
'[09:00:05.864]';0;-0.385
'[09:00:05.868]';0.145;-0.395
'[09:00:05.872]';0.25;-0.41
'[09:00:05.876]';0.15;-0.395
'[09:00:05.880]';-0.06;-0.38
'[09:00:05.884]';-0.155;-0.385
'[09:00:05.888]';-0.085;-0.385
'[09:00:05.892]';-0.035;-0.38
'[09:00:05.896]';-0.045;-0.37
'[09:00:05.900]';-0.05;-0.375
'[09:00:05.904]';-0.03;-0.365
'[09:00:05.908]';0;-0.36
'[09:00:05.912]';0.035;-0.365
'[09:00:05.916]';0.1;-0.36
'[09:00:05.920]';0.11;-0.35
'[09:00:05.924]';0.08;-0.32
'[09:00:05.928]';0.06;-0.325
'[09:00:05.932]';0.04;-0.31
'[09:00:05.936]';0.09;-0.34
'[09:00:05.940]';0.09;-0.385
'[09:00:05.944]';0.03;-0.385
'[09:00:05.948]';-0.035;-0.385
'[09:00:05.952]';-0.025;-0.38
'[09:00:05.956]';0.06;-0.395
'[09:00:05.960]';0.11;-0.395
'[09:00:05.964]';0.055;-0.395
'[09:00:05.968]';-0.04;-0.375
'[09:00:05.972]';-0.125;-0.37
'[09:00:05.976]';-0.17;-0.365
'[09:00:05.980]';-0.1;-0.375
'[09:00:05.984]';-0.015;-0.385
'[09:00:05.988]';-0.02;-0.38
'[09:00:05.992]';-0.015;-0.375
'[09:00:05.996]';-0.005;-0.36
'[09:00:06.000]';-0.015;-0.34
'[09:00:06.004]';-0.035;-0.34
'[09:00:06.008]';-0.035;-0.34
'[09:00:06.012]';-0.015;-0.32
'[09:00:06.016]';0;-0.315
'[09:00:06.020]';0.045;-0.33
'[09:00:06.024]';0.14;-0.36
'[09:00:06.028]';0.325;-0.355
'[09:00:06.032]';0.305;-0.34
'[09:00:06.036]';-0.04;-0.36
'[09:00:06.040]';-0.305;-0.39
'[09:00:06.044]';-0.285;-0.425
'[09:00:06.048]';-0.11;-0.41
'[09:00:06.052]';0.075;-0.4
'[09:00:06.056]';0.075;-0.395
'[09:00:06.060]';-0.02;-0.395
'[09:00:06.064]';-0.07;-0.395
'[09:00:06.068]';0.02;-0.38
'[09:00:06.072]';0.13;-0.365
'[09:00:06.076]';0.1;-0.36
'[09:00:06.080]';0.005;-0.35
'[09:00:06.084]';-0.09;-0.32
'[09:00:06.088]';-0.12;-0.3
'[09:00:06.092]';-0.11;-0.265
'[09:00:06.096]';-0.04;-0.225
'[09:00:06.100]';0.005;-0.225
'[09:00:06.104]';0.065;-0.245
'[09:00:06.108]';0.07;-0.295
'[09:00:06.112]';0.01;-0.34
'[09:00:06.116]';-0.04;-0.34
'[09:00:06.120]';-0.035;-0.335
'[09:00:06.124]';-0.005;-0.305
'[09:00:06.128]';-0.04;-0.285
'[09:00:06.132]';-0.19;-0.25
'[09:00:06.136]';-0.35;-0.235
'[09:00:06.140]';-0.4;-0.2
'[09:00:06.144]';-0.42;-0.225
'[09:00:06.148]';-0.435;-0.24
'[09:00:06.152]';-0.375;-0.285
'[09:00:06.156]';-0.275;-0.31
'[09:00:06.160]';-0.19;-0.345
'[09:00:06.164]';-0.115;-0.35
'[09:00:06.168]';-0.09;-0.355
'[09:00:06.172]';-0.075;-0.36
'[09:00:06.176]';-0.045;-0.36
'[09:00:06.180]';-0.035;-0.35
'[09:00:06.184]';-0.015;-0.35
'[09:00:06.188]';0.005;-0.36
'[09:00:06.192]';0;-0.36
'[09:00:06.196]';0;-0.37
'[09:00:06.200]';0;-0.38
'[09:00:06.204]';0;-0.385
'[09:00:06.208]';-0.015;-0.385
'[09:00:06.212]';-0.01;-0.405
'[09:00:06.216]';-0.015;-0.395
'[09:00:06.220]';0;-0.4
'[09:00:06.224]';-0.02;-0.415
'[09:00:06.228]';0.005;-0.42
'[09:00:06.232]';0.005;-0.4
'[09:00:06.236]';-0.015;-0.42
'[09:00:06.240]';-0.015;-0.405
'[09:00:06.244]';-0.02;-0.415
'[09:00:06.248]';-0.015;-0.415
'[09:00:06.252]';-0.015;-0.41
'[09:00:06.256]';-0.01;-0.415
'[09:00:06.260]';0.005;-0.39
'[09:00:06.264]';0.05;-0.4
'[09:00:06.268]';0.075;-0.4
'[09:00:06.272]';0.045;-0.42
'[09:00:06.276]';0.01;-0.435
'[09:00:06.280]';0.03;-0.435
'[09:00:06.284]';-0.04;-0.405
'[09:00:06.288]';-0.16;-0.375
'[09:00:06.292]';-0.18;-0.37
'[09:00:06.296]';-0.135;-0.41
'[09:00:06.300]';-0.1;-0.46
'[09:00:06.304]';-0.065;-0.47
'[09:00:06.308]';-0.015;-0.465
'[09:00:06.312]';0;-0.44
'[09:00:06.316]';-0.01;-0.42
'[09:00:06.320]';-0.055;-0.41
'[09:00:06.324]';-0.06;-0.405
'[09:00:06.328]';-0.045;-0.435
'[09:00:06.332]';-0.02;-0.44
'[09:00:06.336]';0.025;-0.44
'[09:00:06.340]';0.085;-0.42
'[09:00:06.344]';0.145;-0.415
'[09:00:06.348]';0.19;-0.42
'[09:00:06.352]';0.11;-0.405
'[09:00:06.356]';-0.125;-0.395
'[09:00:06.360]';-0.27;-0.385
'[09:00:06.364]';-0.24;-0.385
'[09:00:06.368]';-0.175;-0.38
'[09:00:06.372]';-0.12;-0.37
'[09:00:06.376]';-0.105;-0.355
'[09:00:06.380]';-0.13;-0.355
'[09:00:06.384]';-0.115;-0.355
'[09:00:06.388]';-0.105;-0.35
'[09:00:06.392]';-0.08;-0.34
'[09:00:06.396]';-0.075;-0.32
'[09:00:06.400]';-0.075;-0.28
'[09:00:06.404]';-0.06;-0.265
'[09:00:06.408]';-0.08;-0.265
'[09:00:06.412]';-0.09;-0.325
'[09:00:06.416]';-0.08;-0.345
'[09:00:06.420]';-0.085;-0.315
'[09:00:06.424]';-0.075;-0.285
'[09:00:06.428]';-0.065;-0.24
'[09:00:06.432]';-0.05;-0.225
'[09:00:06.436]';-0.055;-0.255
'[09:00:06.440]';-0.055;-0.29
'[09:00:06.444]';-0.085;-0.305
'[09:00:06.448]';-0.07;-0.295
'[09:00:06.452]';-0.02;-0.26
'[09:00:06.456]';-0.055;-0.24
'[09:00:06.460]';-0.075;-0.255
'[09:00:06.464]';-0.095;-0.275
'[09:00:06.468]';-0.07;-0.28
'[09:00:06.472]';-0.015;-0.275
'[09:00:06.476]';0.035;-0.27
'[09:00:06.480]';0;-0.24
'[09:00:06.484]';-0.08;-0.215
'[09:00:06.488]';-0.14;-0.24
'[09:00:06.492]';-0.1;-0.28
'[09:00:06.496]';0.02;-0.3
'[09:00:06.500]';0.035;-0.25
'[09:00:06.504]';-0.04;-0.2
'[09:00:06.508]';-0.11;-0.14
'[09:00:06.512]';-0.135;-0.175
'[09:00:06.516]';-0.09;-0.24
'[09:00:06.520]';-0.05;-0.3
'[09:00:06.524]';-0.04;-0.33
'[09:00:06.528]';-0.09;-0.32
'[09:00:06.532]';-0.09;-0.29
'[09:00:06.536]';-0.105;-0.24
'[09:00:06.540]';-0.095;-0.23
'[09:00:06.544]';-0.08;-0.22
'[09:00:06.548]';-0.065;-0.215
'[09:00:06.552]';-0.075;-0.215
'[09:00:06.556]';-0.065;-0.22
'[09:00:06.560]';-0.075;-0.21
'[09:00:06.564]';-0.065;-0.21
'[09:00:06.568]';-0.075;-0.215
'[09:00:06.572]';-0.085;-0.22
'[09:00:06.576]';-0.085;-0.195
'[09:00:06.580]';-0.025;-0.17
'[09:00:06.584]';0.03;-0.145
'[09:00:06.588]';-0.025;-0.14
'[09:00:06.592]';-0.125;-0.205
'[09:00:06.596]';-0.125;-0.26
'[09:00:06.600]';-0.115;-0.245
'[09:00:06.604]';-0.09;-0.22
'[09:00:06.608]';-0.09;-0.2
'[09:00:06.612]';-0.105;-0.175
'[09:00:06.616]';-0.11;-0.165
'[09:00:06.620]';-0.11;-0.17
'[09:00:06.624]';-0.06;-0.17
'[09:00:06.628]';0.015;-0.175
'[09:00:06.632]';0.075;-0.165
'[09:00:06.636]';-0.005;-0.165
'[09:00:06.640]';-0.115;-0.16
'[09:00:06.644]';-0.09;-0.15
'[09:00:06.648]';-0.005;-0.155
'[09:00:06.652]';-0.04;-0.15
'[09:00:06.656]';-0.13;-0.135
'[09:00:06.660]';-0.215;-0.1
'[09:00:06.664]';-0.22;-0.055
'[09:00:06.668]';-0.195;-0.06
'[09:00:06.672]';-0.135;-0.095
'[09:00:06.676]';-0.095;-0.11
'[09:00:06.680]';-0.035;-0.07
'[09:00:06.684]';-0.03;-0.045
'[09:00:06.688]';-0.035;-0.07
'[09:00:06.692]';-0.055;-0.1
'[09:00:06.696]';-0.02;-0.09
'[09:00:06.700]';0.035;-0.08
'[09:00:06.704]';0.07;-0.075
'[09:00:06.708]';0.055;-0.075
'[09:00:06.712]';-0.075;-0.065
'[09:00:06.716]';-0.26;-0.05
'[09:00:06.720]';-0.395;-0.035
'[09:00:06.724]';-0.45;-0.015
'[09:00:06.728]';-0.495;-0.005
'[09:00:06.732]';-0.42;-0.03
'[09:00:06.736]';-0.29;-0.05
'[09:00:06.740]';-0.245;-0.065
'[09:00:06.744]';-0.245;-0.085
'[09:00:06.748]';-0.2;-0.09
'[09:00:06.752]';-0.175;-0.115
'[09:00:06.756]';-0.165;-0.13
'[09:00:06.760]';-0.16;-0.12
'[09:00:06.764]';-0.13;-0.105
'[09:00:06.768]';-0.12;-0.095
'[09:00:06.772]';-0.07;-0.1
'[09:00:06.776]';-0.065;-0.085
'[09:00:06.780]';-0.05;-0.08
'[09:00:06.784]';-0.055;-0.065
'[09:00:06.788]';-0.055;-0.1
'[09:00:06.792]';-0.08;-0.135
'[09:00:06.796]';-0.08;-0.2
'[09:00:06.800]';-0.07;-0.2
'[09:00:06.804]';-0.035;-0.185
'[09:00:06.808]';-0.02;-0.18
'[09:00:06.812]';-0.03;-0.175
'[09:00:06.816]';-0.03;-0.185
'[09:00:06.820]';-0.015;-0.18
'[09:00:06.824]';-0.03;-0.155
'[09:00:06.828]';-0.03;-0.16
'[09:00:06.832]';-0.02;-0.16
'[09:00:06.836]';-0.015;-0.17
'[09:00:06.840]';-0.005;-0.17
'[09:00:06.844]';-0.015;-0.165
'[09:00:06.848]';-0.045;-0.16
'[09:00:06.852]';-0.03;-0.18
'[09:00:06.856]';-0.02;-0.165
'[09:00:06.860]';-0.02;-0.17
'[09:00:06.864]';-0.01;-0.155
'[09:00:06.868]';0.02;-0.15
'[09:00:06.872]';-0.005;-0.14
'[09:00:06.876]';-0.075;-0.11
'[09:00:06.880]';-0.09;-0.105
'[09:00:06.884]';-0.07;-0.11
'[09:00:06.888]';0;-0.13
'[09:00:06.892]';0.015;-0.14
'[09:00:06.896]';-0.05;-0.19
'[09:00:06.900]';-0.1;-0.2
'[09:00:06.904]';-0.085;-0.2
'[09:00:06.908]';-0.045;-0.195
'[09:00:06.912]';-0.02;-0.19
'[09:00:06.916]';-0.01;-0.16
'[09:00:06.920]';-0.025;-0.16
'[09:00:06.924]';0.01;-0.15
'[09:00:06.928]';0.095;-0.14
'[09:00:06.932]';0.13;-0.12
'[09:00:06.936]';0.09;-0.095
'[09:00:06.940]';0.03;-0.085
'[09:00:06.944]';-0.01;-0.08
'[09:00:06.948]';-0.05;-0.09
'[09:00:06.952]';-0.11;-0.12
'[09:00:06.956]';-0.11;-0.135
'[09:00:06.960]';-0.135;-0.12
'[09:00:06.964]';-0.16;-0.115
'[09:00:06.968]';-0.135;-0.085
'[09:00:06.972]';-0.105;-0.1
'[09:00:06.976]';-0.075;-0.1
'[09:00:06.980]';-0.065;-0.11
'[09:00:06.984]';-0.035;-0.105
'[09:00:06.988]';-0.05;-0.095
'[09:00:06.992]';-0.03;-0.09
'[09:00:06.996]';-0.035;-0.08
'[09:00:07.000]';-0.045;-0.06
'[09:00:07.004]';-0.035;-0.02
'[09:00:07.008]';-0.03;-0.005
'[09:00:07.012]';-0.015;-0.045
'[09:00:07.016]';-0.01;-0.055
'[09:00:07.020]';-0.04;-0.05
'[09:00:07.024]';-0.075;-0.035
'[09:00:07.028]';-0.06;-0.06
'[09:00:07.032]';-0.01;-0.06
'[09:00:07.036]';0.08;-0.04
'[09:00:07.040]';0.11;-0.03
'[09:00:07.044]';0.025;-0.025
'[09:00:07.048]';-0.07;-0.03
'[09:00:07.052]';-0.04;-0.035
'[09:00:07.056]';0.11;-0.055
'[09:00:07.060]';0.14;-0.07
'[09:00:07.064]';-0.05;-0.075
'[09:00:07.068]';-0.2;-0.06
'[09:00:07.072]';-0.185;-0.065
'[09:00:07.076]';-0.16;-0.05
'[09:00:07.080]';-0.095;-0.05
'[09:00:07.084]';-0.035;-0.06
'[09:00:07.088]';0.025;-0.065
'[09:00:07.092]';-0.005;-0.055
'[09:00:07.096]';-0.06;-0.04
'[09:00:07.100]';-0.085;-0.005
'[09:00:07.104]';-0.045;0.035
'[09:00:07.108]';-0.005;0.03
'[09:00:07.112]';-0.03;-0.035
'[09:00:07.116]';-0.05;-0.095
'[09:00:07.120]';0.04;-0.09
'[09:00:07.124]';0.12;-0.025
'[09:00:07.128]';0.03;0.005
'[09:00:07.132]';-0.03;-0.03
'[09:00:07.136]';-0.01;-0.055
'[09:00:07.140]';-0.04;-0.06
'[09:00:07.144]';-0.08;-0.04
'[09:00:07.148]';-0.06;-0.035
'[09:00:07.152]';-0.02;-0.05
'[09:00:07.156]';0;-0.04
'[09:00:07.160]';-0.09;-0.03
'[09:00:07.164]';-0.17;-0.035
'[09:00:07.168]';-0.165;-0.015
'[09:00:07.172]';-0.155;-0.01
'[09:00:07.176]';-0.115;0.005
'[09:00:07.180]';-0.095;0
'[09:00:07.184]';-0.075;-0.015
'[09:00:07.188]';-0.075;-0.025
'[09:00:07.192]';-0.065;-0.035
'[09:00:07.196]';-0.04;-0.03
'[09:00:07.200]';-0.04;-0.03
'[09:00:07.204]';-0.035;-0.015
'[09:00:07.208]';-0.005;0
'[09:00:07.212]';-0.03;-0.015
'[09:00:07.216]';-0.07;-0.005
'[09:00:07.220]';-0.095;0
'[09:00:07.224]';-0.08;0
'[09:00:07.228]';-0.06;0.005
'[09:00:07.232]';0.015;0.005
'[09:00:07.236]';0.03;-0.005
'[09:00:07.240]';-0.035;-0.01
'[09:00:07.244]';-0.165;-0.005
'[09:00:07.248]';-0.2;0
'[09:00:07.252]';-0.15;0.005
'[09:00:07.256]';-0.095;0
'[09:00:07.260]';-0.075;0.01
'[09:00:07.264]';-0.055;0.015
'[09:00:07.268]';-0.03;0.015
'[09:00:07.272]';-0.01;0.015
'[09:00:07.276]';-0.085;0.045
'[09:00:07.280]';-0.135;0.055
'[09:00:07.284]';-0.12;0.055
'[09:00:07.288]';-0.125;0.04
'[09:00:07.292]';-0.09;0.085
'[09:00:07.296]';-0.08;0.12
'[09:00:07.300]';-0.07;0.1
'[09:00:07.304]';-0.07;0.065
'[09:00:07.308]';-0.05;0.05
'[09:00:07.312]';-0.03;0.075
'[09:00:07.316]';-0.06;0.095
'[09:00:07.320]';-0.165;0.11
'[09:00:07.324]';-0.325;0.13
'[09:00:07.328]';-0.405;0.14
'[09:00:07.332]';-0.35;0.145
'[09:00:07.336]';-0.23;0.165
'[09:00:07.340]';-0.25;0.15
'[09:00:07.344]';-0.44;0.125
'[09:00:07.348]';-0.42;0.115
'[09:00:07.352]';-0.33;0.08
'[09:00:07.356]';-0.2;0.08
'[09:00:07.360]';-0.155;0.075
'[09:00:07.364]';-0.16;0.075
'[09:00:07.368]';-0.16;0.05
'[09:00:07.372]';-0.13;0.05
'[09:00:07.376]';-0.08;0.07
'[09:00:07.380]';-0.05;0.075
'[09:00:07.384]';0;0.055
'[09:00:07.388]';-0.02;0.03
'[09:00:07.392]';-0.05;0.03
'[09:00:07.396]';-0.075;0.02
'[09:00:07.400]';-0.07;0
'[09:00:07.404]';-0.065;-0.005
'[09:00:07.408]';-0.065;0
'[09:00:07.412]';-0.055;0.005
'[09:00:07.416]';-0.04;0.01
'[09:00:07.420]';0.005;0.005
'[09:00:07.424]';0.005;0
'[09:00:07.428]';-0.03;0.005
'[09:00:07.432]';-0.105;0.02
'[09:00:07.436]';-0.095;0.025
'[09:00:07.440]';-0.03;0.02
'[09:00:07.444]';0.07;0.04
'[09:00:07.448]';0.13;0.055
'[09:00:07.452]';0.1;0.05
'[09:00:07.456]';-0.105;0.005
'[09:00:07.460]';-0.235;-0.01
'[09:00:07.464]';-0.16;-0.015
'[09:00:07.468]';-0.06;0.005
'[09:00:07.472]';-0.13;0.02
'[09:00:07.476]';-0.125;0.05
'[09:00:07.480]';-0.08;0.045
'[09:00:07.484]';-0.04;0.08
'[09:00:07.488]';-0.025;0.065
'[09:00:07.492]';-0.01;0.045
'[09:00:07.496]';-0.035;0.01
'[09:00:07.500]';-0.1;0.005
'[09:00:07.504]';-0.115;0.005
'[09:00:07.508]';-0.09;0.005
'[09:00:07.512]';-0.04;-0.005
'[09:00:07.516]';0;-0.01
'[09:00:07.520]';0.005;0.005
'[09:00:07.524]';-0.025;0
'[09:00:07.528]';-0.075;0.015
'[09:00:07.532]';-0.07;-0.005
'[09:00:07.536]';-0.035;-0.005
'[09:00:07.540]';-0.005;0.005
'[09:00:07.544]';-0.01;0.015
'[09:00:07.548]';0.005;0.03
'[09:00:07.552]';-0.015;0.035
'[09:00:07.556]';-0.045;0.05
'[09:00:07.560]';-0.095;0.04
'[09:00:07.564]';-0.1;0.05
'[09:00:07.568]';-0.095;0.01
'[09:00:07.572]';-0.115;0.01
'[09:00:07.576]';-0.14;0.02
'[09:00:07.580]';-0.095;0.02
'[09:00:07.584]';-0.045;0.045
'[09:00:07.588]';-0.07;0.06
'[09:00:07.592]';-0.075;0.085
'[09:00:07.596]';-0.11;0.095
'[09:00:07.600]';-0.1;0.09
'[09:00:07.604]';-0.055;0.06
'[09:00:07.608]';-0.055;0.055
'[09:00:07.612]';-0.08;0.05
'[09:00:07.616]';-0.08;0.05
'[09:00:07.620]';-0.06;0.055
'[09:00:07.624]';-0.05;0.055
'[09:00:07.628]';-0.025;0.045
'[09:00:07.632]';0.02;0.05
'[09:00:07.636]';0.02;0.04
'[09:00:07.640]';0.035;0.055
'[09:00:07.644]';-0.04;0.065
'[09:00:07.648]';-0.12;0.075
'[09:00:07.652]';-0.145;0.07
'[09:00:07.656]';-0.075;0.075
'[09:00:07.660]';0.01;0.07
'[09:00:07.664]';0.025;0.075
'[09:00:07.668]';-0.04;0.08
'[09:00:07.672]';-0.1;0.075
'[09:00:07.676]';-0.13;0.065
'[09:00:07.680]';-0.09;0.06
'[09:00:07.684]';-0.07;0.065
'[09:00:07.688]';-0.03;0.065
'[09:00:07.692]';-0.03;0.06
'[09:00:07.696]';-0.065;0.065
'[09:00:07.700]';-0.06;0.08
'[09:00:07.704]';-0.015;0.07
'[09:00:07.708]';0.065;0.07
'[09:00:07.712]';0.1;0.06
'[09:00:07.716]';-0.015;0.08
'[09:00:07.720]';-0.14;0.1
'[09:00:07.724]';-0.15;0.105
'[09:00:07.728]';-0.115;0.12
'[09:00:07.732]';-0.035;0.125
'[09:00:07.736]';-0.005;0.125
'[09:00:07.740]';-0.01;0.105
'[09:00:07.744]';-0.06;0.075
'[09:00:07.748]';-0.055;0.065
'[09:00:07.752]';0.025;0.095
'[09:00:07.756]';0.055;0.11
'[09:00:07.760]';-0.05;0.115
'[09:00:07.764]';-0.125;0.115
'[09:00:07.768]';-0.14;0.12
'[09:00:07.772]';-0.095;0.135
'[09:00:07.776]';-0.06;0.12
'[09:00:07.780]';-0.04;0.145
'[09:00:07.784]';-0.045;0.17
'[09:00:07.788]';-0.09;0.2
'[09:00:07.792]';-0.095;0.235
'[09:00:07.796]';-0.105;0.23
'[09:00:07.800]';-0.05;0.21
'[09:00:07.804]';0.015;0.205
'[09:00:07.808]';0.03;0.2
'[09:00:07.812]';-0.02;0.2
'[09:00:07.816]';-0.08;0.2
'[09:00:07.820]';-0.2;0.23
'[09:00:07.824]';-0.35;0.25
'[09:00:07.828]';-0.43;0.27
'[09:00:07.832]';-0.45;0.285
'[09:00:07.836]';-0.42;0.28
'[09:00:07.840]';-0.33;0.25
'[09:00:07.844]';-0.26;0.215
'[09:00:07.848]';-0.21;0.18
'[09:00:07.852]';-0.185;0.195
'[09:00:07.856]';-0.14;0.19
'[09:00:07.860]';-0.11;0.175
'[09:00:07.864]';-0.1;0.18
'[09:00:07.868]';-0.105;0.185
'[09:00:07.872]';-0.07;0.21
'[09:00:07.876]';0.015;0.195
'[09:00:07.880]';0.07;0.18
'[09:00:07.884]';0.01;0.165
'[09:00:07.888]';-0.06;0.13
'[09:00:07.892]';-0.05;0.12
'[09:00:07.896]';0.05;0.095
'[09:00:07.900]';0.11;0.095
'[09:00:07.904]';0.035;0.1
'[09:00:07.908]';-0.035;0.1
'[09:00:07.912]';-0.04;0.12
'[09:00:07.916]';-0.015;0.125
'[09:00:07.920]';-0.075;0.155
'[09:00:07.924]';-0.115;0.17
'[09:00:07.928]';-0.055;0.17
'[09:00:07.932]';0.02;0.15
'[09:00:07.936]';0.005;0.125
'[09:00:07.940]';-0.06;0.125
'[09:00:07.944]';-0.115;0.135
'[09:00:07.948]';-0.11;0.14
'[09:00:07.952]';-0.09;0.155
'[09:00:07.956]';-0.075;0.155
'[09:00:07.960]';-0.04;0.14
'[09:00:07.964]';-0.035;0.145
'[09:00:07.968]';-0.025;0.13
'[09:00:07.972]';-0.02;0.145
'[09:00:07.976]';-0.025;0.145
'[09:00:07.980]';0;0.165
'[09:00:07.984]';0.04;0.18
'[09:00:07.988]';0.01;0.16
'[09:00:07.992]';-0.055;0.145
'[09:00:07.996]';-0.06;0.15
'[09:00:08.000]';0.025;0.145
'[09:00:08.004]';0.07;0.13
'[09:00:08.008]';0.04;0.13
'[09:00:08.012]';-0.05;0.135
'[09:00:08.016]';-0.13;0.13
'[09:00:08.020]';-0.095;0.14
'[09:00:08.024]';0.04;0.135
'[09:00:08.028]';0.11;0.135
'[09:00:08.032]';0.01;0.165
'[09:00:08.036]';-0.065;0.175
'[09:00:08.040]';-0.055;0.165
'[09:00:08.044]';-0.09;0.17
'[09:00:08.048]';-0.17;0.155
'[09:00:08.052]';-0.17;0.16
'[09:00:08.056]';-0.11;0.19
'[09:00:08.060]';-0.05;0.18
'[09:00:08.064]';-0.025;0.175
'[09:00:08.068]';-0.045;0.185
'[09:00:08.072]';-0.035;0.18
'[09:00:08.076]';-0.02;0.19
'[09:00:08.080]';-0.05;0.195
'[09:00:08.084]';-0.08;0.2
'[09:00:08.088]';-0.035;0.16
'[09:00:08.092]';0.03;0.155
'[09:00:08.096]';0.085;0.17
'[09:00:08.100]';0.025;0.175
'[09:00:08.104]';-0.055;0.195
'[09:00:08.108]';-0.1;0.205
'[09:00:08.112]';-0.11;0.2
'[09:00:08.116]';-0.12;0.205
'[09:00:08.120]';-0.095;0.205
'[09:00:08.124]';-0.065;0.195
'[09:00:08.128]';0;0.195
'[09:00:08.132]';0.03;0.205
'[09:00:08.136]';-0.03;0.215
'[09:00:08.140]';-0.095;0.235
'[09:00:08.144]';-0.08;0.26
'[09:00:08.148]';-0.02;0.275
'[09:00:08.152]';-0.055;0.26
'[09:00:08.156]';-0.07;0.2
'[09:00:08.160]';-0.05;0.16
'[09:00:08.164]';-0.03;0.175
'[09:00:08.168]';-0.04;0.23
'[09:00:08.172]';-0.065;0.255
'[09:00:08.176]';-0.015;0.26
'[09:00:08.180]';0;0.21
'[09:00:08.184]';-0.09;0.165
'[09:00:08.188]';-0.165;0.155
'[09:00:08.192]';-0.145;0.16
'[09:00:08.196]';-0.045;0.175
'[09:00:08.200]';0.035;0.175
'[09:00:08.204]';0.015;0.195
'[09:00:08.208]';-0.055;0.195
'[09:00:08.212]';-0.11;0.21
'[09:00:08.216]';-0.075;0.19
'[09:00:08.220]';0.06;0.185
'[09:00:08.224]';0.075;0.19
'[09:00:08.228]';-0.08;0.205
'[09:00:08.232]';-0.21;0.215
'[09:00:08.236]';-0.21;0.22
'[09:00:08.240]';-0.19;0.215
'[09:00:08.244]';-0.115;0.195
'[09:00:08.248]';-0.045;0.185
'[09:00:08.252]';0.045;0.2
'[09:00:08.256]';0.055;0.19
'[09:00:08.260]';-0.035;0.215
'[09:00:08.264]';-0.135;0.245
'[09:00:08.268]';-0.065;0.255
'[09:00:08.272]';0.025;0.22
'[09:00:08.276]';0.025;0.175
'[09:00:08.280]';0;0.17
'[09:00:08.284]';-0.015;0.195
'[09:00:08.288]';-0.035;0.225
'[09:00:08.292]';-0.02;0.22
'[09:00:08.296]';0.035;0.2
'[09:00:08.300]';-0.03;0.195
'[09:00:08.304]';-0.195;0.2
'[09:00:08.308]';-0.16;0.215
'[09:00:08.312]';0.005;0.25
'[09:00:08.316]';0.005;0.25
'[09:00:08.320]';-0.11;0.24
'[09:00:08.324]';-0.2;0.22
'[09:00:08.328]';-0.15;0.22
'[09:00:08.332]';-0.05;0.22
'[09:00:08.336]';-0.065;0.215
'[09:00:08.340]';-0.12;0.205
'[09:00:08.344]';-0.155;0.22
'[09:00:08.348]';-0.13;0.215
'[09:00:08.352]';-0.075;0.23
'[09:00:08.356]';-0.085;0.255
'[09:00:08.360]';-0.095;0.275
'[09:00:08.364]';-0.125;0.28
'[09:00:08.368]';-0.105;0.285
'[09:00:08.372]';-0.09;0.285
'[09:00:08.376]';0.035;0.275
'[09:00:08.380]';0.155;0.27
'[09:00:08.384]';0.06;0.275
'[09:00:08.388]';-0.125;0.275
'[09:00:08.392]';-0.18;0.295
'[09:00:08.396]';-0.24;0.33
'[09:00:08.400]';-0.38;0.34
'[09:00:08.404]';-0.46;0.34
'[09:00:08.408]';-0.405;0.355
'[09:00:08.412]';-0.34;0.38
'[09:00:08.416]';-0.275;0.38
'[09:00:08.420]';-0.24;0.365
'[09:00:08.424]';-0.25;0.32
'[09:00:08.428]';-0.285;0.31
'[09:00:08.432]';-0.265;0.305
'[09:00:08.436]';-0.24;0.255
'[09:00:08.440]';-0.195;0.21
'[09:00:08.444]';-0.105;0.22
'[09:00:08.448]';-0.05;0.28
'[09:00:08.452]';-0.005;0.285
'[09:00:08.456]';0.02;0.255
'[09:00:08.460]';-0.045;0.225
'[09:00:08.464]';-0.07;0.215
'[09:00:08.468]';0.015;0.23
'[09:00:08.472]';0.13;0.24
'[09:00:08.476]';0.02;0.275
'[09:00:08.480]';-0.105;0.28
'[09:00:08.484]';-0.1;0.235
'[09:00:08.488]';0;0.185
'[09:00:08.492]';-0.065;0.17
'[09:00:08.496]';-0.2;0.2
'[09:00:08.500]';-0.16;0.25
'[09:00:08.504]';-0.035;0.265
'[09:00:08.508]';0.035;0.21
'[09:00:08.512]';-0.055;0.175
'[09:00:08.516]';-0.16;0.18
'[09:00:08.520]';-0.14;0.205
'[09:00:08.524]';-0.045;0.22
'[09:00:08.528]';0.055;0.215
'[09:00:08.532]';0.035;0.215
'[09:00:08.536]';-0.005;0.205
'[09:00:08.540]';0.015;0.225
'[09:00:08.544]';0.01;0.235
'[09:00:08.548]';-0.08;0.255
'[09:00:08.552]';-0.165;0.265
'[09:00:08.556]';-0.18;0.235
'[09:00:08.560]';-0.06;0.235
'[09:00:08.564]';0.105;0.24
'[09:00:08.568]';0.11;0.22
'[09:00:08.572]';-0.045;0.21
'[09:00:08.576]';-0.15;0.19
'[09:00:08.580]';-0.085;0.19
'[09:00:08.584]';-0.08;0.215
'[09:00:08.588]';-0.13;0.245
'[09:00:08.592]';-0.11;0.21
'[09:00:08.596]';-0.11;0.19
'[09:00:08.600]';-0.07;0.195
'[09:00:08.604]';-0.035;0.22
'[09:00:08.608]';0.025;0.225
'[09:00:08.612]';-0.025;0.225
'[09:00:08.616]';-0.165;0.18
'[09:00:08.620]';-0.115;0.155
'[09:00:08.624]';-0.005;0.195
'[09:00:08.628]';-0.06;0.24
'[09:00:08.632]';-0.16;0.245
'[09:00:08.636]';-0.105;0.24
'[09:00:08.640]';-0.01;0.235
'[09:00:08.644]';-0.005;0.23
'[09:00:08.648]';-0.055;0.205
'[09:00:08.652]';-0.14;0.205
'[09:00:08.656]';-0.18;0.215
'[09:00:08.660]';-0.145;0.24
'[09:00:08.664]';-0.055;0.255
'[09:00:08.668]';0.02;0.27
'[09:00:08.672]';-0.005;0.255
'[09:00:08.676]';-0.035;0.24
'[09:00:08.680]';-0.01;0.25
'[09:00:08.684]';-0.07;0.27
'[09:00:08.688]';-0.165;0.28
'[09:00:08.692]';-0.185;0.275
'[09:00:08.696]';-0.1;0.27
'[09:00:08.700]';0.02;0.3
'[09:00:08.704]';0.035;0.275
'[09:00:08.708]';-0.08;0.26
'[09:00:08.712]';-0.16;0.245
'[09:00:08.716]';-0.145;0.25
'[09:00:08.720]';-0.07;0.265
'[09:00:08.724]';0;0.29
'[09:00:08.728]';-0.025;0.285
'[09:00:08.732]';-0.085;0.245
'[09:00:08.736]';-0.08;0.25
'[09:00:08.740]';-0.04;0.27
'[09:00:08.744]';-0.08;0.28
'[09:00:08.748]';-0.14;0.26
'[09:00:08.752]';-0.115;0.245
'[09:00:08.756]';-0.075;0.23
'[09:00:08.760]';-0.01;0.235
'[09:00:08.764]';0.015;0.25
'[09:00:08.768]';-0.03;0.245
'[09:00:08.772]';-0.055;0.24
'[09:00:08.776]';0.025;0.255
'[09:00:08.780]';0.055;0.295
'[09:00:08.784]';-0.065;0.29
'[09:00:08.788]';-0.205;0.26
'[09:00:08.792]';-0.22;0.24
'[09:00:08.796]';-0.105;0.25
'[09:00:08.800]';-0.01;0.27
'[09:00:08.804]';-0.01;0.285
'[09:00:08.808]';-0.105;0.285
'[09:00:08.812]';-0.175;0.27
'[09:00:08.816]';-0.205;0.245
'[09:00:08.820]';-0.13;0.24
'[09:00:08.824]';-0.015;0.24
'[09:00:08.828]';0.11;0.26
'[09:00:08.832]';0.095;0.27
'[09:00:08.836]';-0.04;0.255
'[09:00:08.840]';-0.03;0.27
'[09:00:08.844]';0.055;0.275
'[09:00:08.848]';0.01;0.29
'[09:00:08.852]';-0.11;0.275
'[09:00:08.856]';-0.18;0.24
'[09:00:08.860]';-0.14;0.205
'[09:00:08.864]';-0.015;0.21
'[09:00:08.868]';0.12;0.26
'[09:00:08.872]';0.06;0.28
'[09:00:08.876]';-0.145;0.305
'[09:00:08.880]';-0.235;0.29
'[09:00:08.884]';-0.205;0.26
'[09:00:08.888]';-0.175;0.23
'[09:00:08.892]';-0.1;0.235
'[09:00:08.896]';-0.055;0.265
'[09:00:08.900]';-0.015;0.27
'[09:00:08.904]';-0.035;0.265
'[09:00:08.908]';-0.1;0.26
'[09:00:08.912]';-0.19;0.235
'[09:00:08.916]';-0.18;0.21
'[09:00:08.920]';-0.095;0.225
'[09:00:08.924]';0.12;0.22
'[09:00:08.928]';0.2;0.245
'[09:00:08.932]';-0.02;0.25
'[09:00:08.936]';-0.2;0.255
'[09:00:08.940]';-0.07;0.25
'[09:00:08.944]';0.05;0.245
'[09:00:08.948]';0.03;0.25
'[09:00:08.952]';-0.13;0.29
'[09:00:08.956]';-0.25;0.315
'[09:00:08.960]';-0.265;0.295
'[09:00:08.964]';-0.215;0.255
'[09:00:08.968]';-0.105;0.21
'[09:00:08.972]';-0.04;0.215
'[09:00:08.976]';-0.1;0.26
'[09:00:08.980]';-0.14;0.27
'[09:00:08.984]';-0.13;0.27
'[09:00:08.988]';-0.1;0.28
'[09:00:08.992]';0.005;0.3
'[09:00:08.996]';0.03;0.305
'[09:00:09.000]';-0.01;0.295
'[09:00:09.004]';-0.065;0.27
'[09:00:09.008]';-0.11;0.275
'[09:00:09.012]';-0.115;0.275
'[09:00:09.016]';0.02;0.275
'[09:00:09.020]';0.2;0.305
'[09:00:09.024]';0.09;0.36
'[09:00:09.028]';-0.35;0.395
'[09:00:09.032]';-0.7;0.385
'[09:00:09.036]';-0.735;0.375
'[09:00:09.040]';-0.55;0.355
'[09:00:09.044]';-0.35;0.33
'[09:00:09.048]';-0.28;0.33
'[09:00:09.052]';-0.27;0.325
'[09:00:09.056]';-0.27;0.34
'[09:00:09.060]';-0.21;0.34
'[09:00:09.064]';-0.125;0.285
'[09:00:09.068]';-0.065;0.235
'[09:00:09.072]';-0.075;0.2
'[09:00:09.076]';-0.05;0.22
'[09:00:09.080]';-0.055;0.245
'[09:00:09.084]';-0.07;0.28
'[09:00:09.088]';-0.165;0.285
'[09:00:09.092]';-0.185;0.245
'[09:00:09.096]';-0.085;0.18
'[09:00:09.100]';0.045;0.145
'[09:00:09.104]';0.05;0.145
'[09:00:09.108]';-0.09;0.17
'[09:00:09.112]';-0.17;0.18
'[09:00:09.116]';-0.095;0.19
'[09:00:09.120]';0.085;0.185
'[09:00:09.124]';0.13;0.18
'[09:00:09.128]';-0.065;0.195
'[09:00:09.132]';-0.245;0.205
'[09:00:09.136]';-0.25;0.205
'[09:00:09.140]';-0.205;0.175
'[09:00:09.144]';-0.115;0.17
'[09:00:09.148]';0.02;0.175
'[09:00:09.152]';0.075;0.165
'[09:00:09.156]';0.01;0.17
'[09:00:09.160]';-0.09;0.175
'[09:00:09.164]';-0.115;0.18
'[09:00:09.168]';-0.05;0.175
'[09:00:09.172]';-0.005;0.19
'[09:00:09.176]';-0.08;0.175
'[09:00:09.180]';-0.2;0.155
'[09:00:09.184]';-0.21;0.13
'[09:00:09.188]';-0.07;0.11
'[09:00:09.192]';0.11;0.115
'[09:00:09.196]';0.07;0.13
'[09:00:09.200]';-0.175;0.145
'[09:00:09.204]';-0.305;0.135
'[09:00:09.208]';-0.265;0.14
'[09:00:09.212]';-0.1;0.125
'[09:00:09.216]';0.04;0.145
'[09:00:09.220]';0.04;0.145
'[09:00:09.224]';-0.14;0.15
'[09:00:09.228]';-0.295;0.14
'[09:00:09.232]';-0.285;0.13
'[09:00:09.236]';-0.18;0.13
'[09:00:09.240]';-0.075;0.125
'[09:00:09.244]';-0.02;0.155
'[09:00:09.248]';-0.07;0.185
'[09:00:09.252]';-0.2;0.18
'[09:00:09.256]';-0.225;0.15
'[09:00:09.260]';-0.13;0.12
'[09:00:09.264]';-0.005;0.155
'[09:00:09.268]';-0.03;0.185
'[09:00:09.272]';-0.165;0.175
'[09:00:09.276]';-0.215;0.12
'[09:00:09.280]';-0.13;0.08
'[09:00:09.284]';-0.005;0.065
'[09:00:09.288]';-0.06;0.085
'[09:00:09.292]';-0.17;0.105
'[09:00:09.296]';-0.155;0.135
'[09:00:09.300]';-0.1;0.135
'[09:00:09.304]';0.04;0.15
'[09:00:09.308]';0.025;0.165
'[09:00:09.312]';-0.16;0.17
'[09:00:09.316]';-0.3;0.18
'[09:00:09.320]';-0.305;0.17
'[09:00:09.324]';-0.245;0.165
'[09:00:09.328]';-0.185;0.17
'[09:00:09.332]';-0.16;0.195
'[09:00:09.336]';-0.145;0.21
'[09:00:09.340]';-0.145;0.215
'[09:00:09.344]';-0.16;0.19
'[09:00:09.348]';-0.17;0.155
'[09:00:09.352]';-0.17;0.15
'[09:00:09.356]';-0.155;0.155
'[09:00:09.360]';-0.15;0.15
'[09:00:09.364]';-0.145;0.13
'[09:00:09.368]';-0.145;0.125
'[09:00:09.372]';-0.135;0.13
'[09:00:09.376]';-0.155;0.11
'[09:00:09.380]';-0.14;0.115
'[09:00:09.384]';-0.115;0.125
'[09:00:09.388]';-0.11;0.13
'[09:00:09.392]';-0.11;0.13
'[09:00:09.396]';-0.08;0.125
'[09:00:09.400]';-0.095;0.125
'[09:00:09.404]';-0.155;0.115
'[09:00:09.408]';-0.21;0.12
'[09:00:09.412]';-0.18;0.125
'[09:00:09.416]';-0.155;0.125
'[09:00:09.420]';-0.12;0.12
'[09:00:09.424]';-0.08;0.125
'[09:00:09.428]';-0.08;0.125
'[09:00:09.432]';-0.12;0.12
'[09:00:09.436]';-0.15;0.13
'[09:00:09.440]';-0.14;0.14
'[09:00:09.444]';-0.12;0.125
'[09:00:09.448]';-0.13;0.15
'[09:00:09.452]';-0.135;0.17
'[09:00:09.456]';-0.12;0.19
'[09:00:09.460]';-0.115;0.16
'[09:00:09.464]';-0.11;0.08
'[09:00:09.468]';-0.085;0.035
'[09:00:09.472]';0.05;0.025
'[09:00:09.476]';0.09;0.025
'[09:00:09.480]';-0.08;0.015
'[09:00:09.484]';-0.24;0.015
'[09:00:09.488]';-0.195;0.005
'[09:00:09.492]';-0.19;-0.005
'[09:00:09.496]';-0.255;0
'[09:00:09.500]';-0.315;0
'[09:00:09.504]';-0.265;0
'[09:00:09.508]';-0.22;0.005
'[09:00:09.512]';-0.165;0.03
'[09:00:09.516]';-0.16;0.03
'[09:00:09.520]';-0.165;0.03
'[09:00:09.524]';-0.125;0.035
'[09:00:09.528]';-0.14;0.04
'[09:00:09.532]';-0.12;0.035
'[09:00:09.536]';-0.12;0.06
'[09:00:09.540]';-0.11;0.045
'[09:00:09.544]';-0.11;0.045
'[09:00:09.548]';-0.11;0.04
'[09:00:09.552]';-0.085;0.06
'[09:00:09.556]';-0.07;0.065
'[09:00:09.560]';-0.09;0.08
'[09:00:09.564]';-0.1;0.08
'[09:00:09.568]';-0.1;0.075
'[09:00:09.572]';-0.05;0.07
'[09:00:09.576]';0.035;0.07
'[09:00:09.580]';0.045;0.075
'[09:00:09.584]';-0.12;0.09
'[09:00:09.588]';-0.24;0.08
'[09:00:09.592]';-0.215;0.085
'[09:00:09.596]';-0.115;0.085
'[09:00:09.600]';-0.075;0.115
'[09:00:09.604]';-0.09;0.155
'[09:00:09.608]';-0.135;0.15
'[09:00:09.612]';-0.19;0.125
'[09:00:09.616]';-0.19;0.105
'[09:00:09.620]';-0.16;0.09
'[09:00:09.624]';-0.105;0.07
'[09:00:09.628]';-0.055;0.095
'[09:00:09.632]';-0.06;0.12
'[09:00:09.636]';-0.105;0.125
'[09:00:09.640]';-0.205;0.135
'[09:00:09.644]';-0.32;0.14
'[09:00:09.648]';-0.355;0.145
'[09:00:09.652]';-0.33;0.155
'[09:00:09.656]';-0.305;0.145
'[09:00:09.660]';-0.35;0.135
'[09:00:09.664]';-0.4;0.11
'[09:00:09.668]';-0.37;0.07
'[09:00:09.672]';-0.27;0.05
'[09:00:09.676]';-0.19;0.03
'[09:00:09.680]';-0.155;0.01
'[09:00:09.684]';-0.145;0.01
'[09:00:09.688]';-0.115;0.01
'[09:00:09.692]';-0.085;0.035
'[09:00:09.696]';-0.065;0.03
'[09:00:09.700]';-0.055;0.02
'[09:00:09.704]';-0.06;0.01
'[09:00:09.708]';-0.05;0.015
'[09:00:09.712]';-0.055;0
'[09:00:09.716]';-0.04;-0.005
'[09:00:09.720]';-0.045;-0.01
'[09:00:09.724]';-0.085;-0.01
'[09:00:09.728]';-0.07;-0.015
'[09:00:09.732]';-0.04;-0.01
'[09:00:09.736]';0.005;-0.015
'[09:00:09.740]';0.025;-0.025
'[09:00:09.744]';0;-0.03
'[09:00:09.748]';-0.02;-0.02
'[09:00:09.752]';0.005;-0.01
'[09:00:09.756]';0.05;-0.015
'[09:00:09.760]';0.04;-0.03
'[09:00:09.764]';-0.03;-0.055
'[09:00:09.768]';-0.105;-0.05
'[09:00:09.772]';-0.135;-0.025
'[09:00:09.776]';-0.105;-0.035
'[09:00:09.780]';-0.065;-0.03
'[09:00:09.784]';-0.04;-0.045
'[09:00:09.788]';0;-0.065
'[09:00:09.792]';0.01;-0.085
'[09:00:09.796]';-0.01;-0.08
'[09:00:09.800]';-0.015;-0.065
'[09:00:09.804]';-0.03;-0.065
'[09:00:09.808]';-0.035;-0.06
'[09:00:09.812]';-0.02;-0.06
'[09:00:09.816]';-0.02;-0.065
'[09:00:09.820]';-0.02;-0.055
'[09:00:09.824]';-0.02;-0.07
'[09:00:09.828]';-0.015;-0.08
'[09:00:09.832]';-0.02;-0.07
'[09:00:09.836]';-0.01;-0.06
'[09:00:09.840]';0.05;-0.09
'[09:00:09.844]';0.07;-0.08
'[09:00:09.848]';0.015;-0.075
'[09:00:09.852]';-0.065;-0.085
'[09:00:09.856]';-0.1;-0.08
'[09:00:09.860]';-0.095;-0.09
'[09:00:09.864]';-0.1;-0.085
'[09:00:09.868]';-0.005;-0.09
'[09:00:09.872]';0.025;-0.085
'[09:00:09.876]';-0.055;-0.07
'[09:00:09.880]';-0.1;-0.06
'[09:00:09.884]';-0.09;-0.07
'[09:00:09.888]';-0.045;-0.065
'[09:00:09.892]';-0.015;-0.08
'[09:00:09.896]';0;-0.115
'[09:00:09.900]';0.01;-0.145
'[09:00:09.904]';-0.02;-0.14
'[09:00:09.908]';-0.01;-0.11
'[09:00:09.912]';-0.02;-0.09
'[09:00:09.916]';0.01;-0.06
'[09:00:09.920]';0.05;-0.09
'[09:00:09.924]';0.01;-0.11
'[09:00:09.928]';-0.08;-0.125
'[09:00:09.932]';-0.135;-0.105
'[09:00:09.936]';-0.09;-0.095
'[09:00:09.940]';-0.065;-0.09
'[09:00:09.944]';-0.065;-0.09
'[09:00:09.948]';-0.055;-0.095
'[09:00:09.952]';-0.045;-0.095
'[09:00:09.956]';-0.04;-0.12
'[09:00:09.960]';-0.045;-0.11
'[09:00:09.964]';-0.04;-0.115
'[09:00:09.968]';-0.025;-0.12
'[09:00:09.972]';-0.02;-0.125
'[09:00:09.976]';-0.03;-0.115
'[09:00:09.980]';-0.02;-0.125
'[09:00:09.984]';-0.05;-0.135
'[09:00:09.988]';-0.065;-0.14
'[09:00:09.992]';-0.05;-0.135
'[09:00:09.996]';-0.01;-0.135
'[09:00:10.000]';0.04;-0.14
'[09:00:10.004]';0.015;-0.145
'[09:00:10.008]';-0.02;-0.13
'[09:00:10.012]';-0.08;-0.13
'[09:00:10.016]';-0.06;-0.14
'[09:00:10.020]';0.015;-0.165
'[09:00:10.024]';0.065;-0.17
'[09:00:10.028]';0.055;-0.165
'[09:00:10.032]';0.02;-0.165
'[09:00:10.036]';0.005;-0.18
'[09:00:10.040]';0.02;-0.165
'[09:00:10.044]';0.065;-0.185
'[09:00:10.048]';0.035;-0.175
'[09:00:10.052]';-0.025;-0.165
'[09:00:10.056]';-0.04;-0.16
'[09:00:10.060]';0;-0.145
'[09:00:10.064]';-0.03;-0.16
'[09:00:10.068]';-0.07;-0.155
'[09:00:10.072]';-0.075;-0.17
'[09:00:10.076]';-0.065;-0.17
'[09:00:10.080]';-0.04;-0.16
'[09:00:10.084]';-0.035;-0.165
'[09:00:10.088]';-0.04;-0.18
'[09:00:10.092]';-0.05;-0.19
'[09:00:10.096]';-0.035;-0.19
'[09:00:10.100]';-0.015;-0.195
'[09:00:10.104]';-0.015;-0.2
'[09:00:10.108]';-0.025;-0.2
'[09:00:10.112]';-0.03;-0.21
'[09:00:10.116]';-0.03;-0.2
'[09:00:10.120]';-0.04;-0.2
'[09:00:10.124]';-0.04;-0.21
'[09:00:10.128]';0;-0.2
'[09:00:10.132]';0.03;-0.21
'[09:00:10.136]';0.01;-0.21
'[09:00:10.140]';-0.015;-0.205
'[09:00:10.144]';0.025;-0.195
'[09:00:10.148]';0.045;-0.205
'[09:00:10.152]';-0.01;-0.195
'[09:00:10.156]';-0.105;-0.195
'[09:00:10.160]';-0.12;-0.195
'[09:00:10.164]';0.015;-0.21
'[09:00:10.168]';0.055;-0.195
'[09:00:10.172]';-0.005;-0.19
'[09:00:10.176]';-0.065;-0.17
'[09:00:10.180]';-0.065;-0.14
'[09:00:10.184]';-0.035;-0.145
'[09:00:10.188]';-0.02;-0.135
'[09:00:10.192]';-0.02;-0.14
'[09:00:10.196]';-0.01;-0.155
'[09:00:10.200]';0.065;-0.155
'[09:00:10.204]';0.1;-0.15
'[09:00:10.208]';0.06;-0.14
'[09:00:10.212]';-0.05;-0.115
'[09:00:10.216]';-0.22;-0.105
'[09:00:10.220]';-0.385;-0.08
'[09:00:10.224]';-0.46;-0.075
'[09:00:10.228]';-0.46;-0.09
'[09:00:10.232]';-0.375;-0.12
'[09:00:10.236]';-0.275;-0.145
'[09:00:10.240]';-0.17;-0.21
'[09:00:10.244]';-0.145;-0.215
'[09:00:10.248]';-0.125;-0.225
'[09:00:10.252]';-0.095;-0.235
'[09:00:10.256]';-0.065;-0.245
'[09:00:10.260]';-0.045;-0.27
'[09:00:10.264]';-0.025;-0.255
'[09:00:10.268]';-0.015;-0.265
'[09:00:10.272]';0;-0.275
'[09:00:10.276]';-0.01;-0.285
'[09:00:10.280]';-0.01;-0.28
'[09:00:10.284]';-0.005;-0.295
'[09:00:10.288]';0.005;-0.295
'[09:00:10.292]';0.01;-0.31
'[09:00:10.296]';-0.005;-0.32
'[09:00:10.300]';-0.005;-0.34
'[09:00:10.304]';0.005;-0.355
'[09:00:10.308]';0;-0.36
'[09:00:10.312]';-0.01;-0.355
'[09:00:10.316]';0.02;-0.345
'[09:00:10.320]';0.135;-0.33
'[09:00:10.324]';0.145;-0.32
'[09:00:10.328]';0.005;-0.305
'[09:00:10.332]';-0.08;-0.295
'[09:00:10.336]';-0.1;-0.315
'[09:00:10.340]';-0.09;-0.315
'[09:00:10.344]';-0.08;-0.34
'[09:00:10.348]';-0.03;-0.355
'[09:00:10.352]';0;-0.33
'[09:00:10.356]';0.025;-0.345
'[09:00:10.360]';0.02;-0.355
'[09:00:10.364]';0;-0.39
'[09:00:10.368]';-0.03;-0.405
'[09:00:10.372]';-0.005;-0.4
'[09:00:10.376]';0;-0.38
'[09:00:10.380]';-0.005;-0.375
'[09:00:10.384]';-0.04;-0.4
'[09:00:10.388]';-0.02;-0.4
'[09:00:10.392]';0;-0.395
'[09:00:10.396]';0.045;-0.395
'[09:00:10.400]';0.04;-0.4
'[09:00:10.404]';-0.05;-0.385
'[09:00:10.408]';-0.115;-0.375
'[09:00:10.412]';-0.09;-0.375
'[09:00:10.416]';-0.07;-0.385
'[09:00:10.420]';-0.025;-0.385
'[09:00:10.424]';0.015;-0.38
'[09:00:10.428]';0.02;-0.395
'[09:00:10.432]';0;-0.385
'[09:00:10.436]';-0.04;-0.385
'[09:00:10.440]';-0.055;-0.395
'[09:00:10.444]';-0.04;-0.38
'[09:00:10.448]';-0.03;-0.39
'[09:00:10.452]';-0.02;-0.37
'[09:00:10.456]';-0.01;-0.375
'[09:00:10.460]';0.005;-0.375
'[09:00:10.464]';0.01;-0.37
'[09:00:10.468]';0.015;-0.36
'[09:00:10.472]';0.03;-0.355
'[09:00:10.476]';0.005;-0.35
'[09:00:10.480]';0;-0.34
'[09:00:10.484]';-0.01;-0.35
'[09:00:10.488]';-0.025;-0.355
'[09:00:10.492]';-0.03;-0.365
'[09:00:10.496]';-0.03;-0.38
'[09:00:10.500]';-0.04;-0.365
'[09:00:10.504]';-0.04;-0.385
'[09:00:10.508]';-0.02;-0.375
'[09:00:10.512]';-0.015;-0.385
'[09:00:10.516]';-0.025;-0.38
'[09:00:10.520]';-0.03;-0.385
'[09:00:10.524]';-0.01;-0.405
'[09:00:10.528]';-0.035;-0.395
'[09:00:10.532]';-0.035;-0.405
'[09:00:10.536]';-0.06;-0.4
'[09:00:10.540]';-0.045;-0.405
'[09:00:10.544]';-0.005;-0.41
'[09:00:10.548]';0.02;-0.39
'[09:00:10.552]';0.02;-0.4
'[09:00:10.556]';0.01;-0.4
'[09:00:10.560]';0;-0.405
'[09:00:10.564]';-0.005;-0.41
'[09:00:10.568]';0.015;-0.415
'[09:00:10.572]';0.015;-0.405
'[09:00:10.576]';0.01;-0.41
'[09:00:10.580]';0.04;-0.415
'[09:00:10.584]';0.155;-0.415
'[09:00:10.588]';0.125;-0.405
'[09:00:10.592]';-0.01;-0.425
'[09:00:10.596]';-0.135;-0.425
'[09:00:10.600]';-0.09;-0.395
'[09:00:10.604]';-0.02;-0.405
'[09:00:10.608]';0.01;-0.42
'[09:00:10.612]';0.01;-0.42
'[09:00:10.616]';-0.005;-0.45
'[09:00:10.620]';-0.015;-0.445
'[09:00:10.624]';-0.015;-0.45
'[09:00:10.628]';-0.005;-0.45
'[09:00:10.632]';0;-0.44
'[09:00:10.636]';0.045;-0.445
'[09:00:10.640]';0.105;-0.445
'[09:00:10.644]';0.125;-0.455
'[09:00:10.648]';0.015;-0.455
'[09:00:10.652]';-0.06;-0.435
'[09:00:10.656]';-0.05;-0.43
'[09:00:10.660]';-0.005;-0.445
'[09:00:10.664]';0.02;-0.44
'[09:00:10.668]';0.04;-0.435
'[09:00:10.672]';0.01;-0.42
'[09:00:10.676]';-0.01;-0.44
'[09:00:10.680]';0;-0.445
'[09:00:10.684]';0.005;-0.455
'[09:00:10.688]';-0.01;-0.44
'[09:00:10.692]';0.015;-0.43
'[09:00:10.696]';0.03;-0.435
'[09:00:10.700]';0.035;-0.46
'[09:00:10.704]';0.025;-0.46
'[09:00:10.708]';0.01;-0.45
'[09:00:10.712]';0.01;-0.44
'[09:00:10.716]';0.015;-0.44
'[09:00:10.720]';0.02;-0.435
'[09:00:10.724]';0.03;-0.415
'[09:00:10.728]';0.045;-0.39
'[09:00:10.732]';0.035;-0.365
'[09:00:10.736]';0.025;-0.37
'[09:00:10.740]';0.045;-0.39
'[09:00:10.744]';0.05;-0.395
'[09:00:10.748]';0.08;-0.4
'[09:00:10.752]';0.11;-0.355
'[09:00:10.756]';0.045;-0.335
'[09:00:10.760]';-0.06;-0.315
'[09:00:10.764]';-0.205;-0.32
'[09:00:10.768]';-0.335;-0.325
'[09:00:10.772]';-0.345;-0.285
'[09:00:10.776]';-0.3;-0.305
'[09:00:10.780]';-0.245;-0.34
'[09:00:10.784]';-0.175;-0.365
'[09:00:10.788]';-0.125;-0.41
'[09:00:10.792]';-0.08;-0.435
'[09:00:10.796]';-0.035;-0.44
'[09:00:10.800]';0;-0.465
'[09:00:10.804]';0.015;-0.48
'[09:00:10.808]';0.035;-0.475
'[09:00:10.812]';0.03;-0.46
'[09:00:10.816]';0.02;-0.455
'[09:00:10.820]';0.035;-0.465
'[09:00:10.824]';0.025;-0.465
'[09:00:10.828]';0.03;-0.48
'[09:00:10.832]';0.045;-0.5
'[09:00:10.836]';0.055;-0.52
'[09:00:10.840]';0.05;-0.535
'[09:00:10.844]';0.045;-0.515
'[09:00:10.848]';0.065;-0.525
'[09:00:10.852]';0.05;-0.535
'[09:00:10.856]';0.09;-0.545
'[09:00:10.860]';0.11;-0.545
'[09:00:10.864]';0.14;-0.54
'[09:00:10.868]';0.1;-0.525
'[09:00:10.872]';0.025;-0.505
'[09:00:10.876]';-0.03;-0.505
'[09:00:10.880]';-0.02;-0.515
'[09:00:10.884]';0.015;-0.535
'[09:00:10.888]';0.07;-0.53
'[09:00:10.892]';0.08;-0.525
'[09:00:10.896]';0.06;-0.53
'[09:00:10.900]';0;-0.55
'[09:00:10.904]';0;-0.55
'[09:00:10.908]';0.015;-0.55
'[09:00:10.912]';0.035;-0.56
'[09:00:10.916]';0.05;-0.545
'[09:00:10.920]';0.07;-0.535
'[09:00:10.924]';0.095;-0.54
'[09:00:10.928]';0.13;-0.535
'[09:00:10.932]';0.09;-0.535
'[09:00:10.936]';0.06;-0.515
'[09:00:10.940]';0.03;-0.52
'[09:00:10.944]';0.02;-0.525
'[09:00:10.948]';0.035;-0.53
'[09:00:10.952]';0.055;-0.545
'[09:00:10.956]';0.085;-0.565
'[09:00:10.960]';0.1;-0.55
'[09:00:10.964]';0.09;-0.565
'[09:00:10.968]';0.085;-0.56
'[09:00:10.972]';0.05;-0.55
'[09:00:10.976]';0.04;-0.54
'[09:00:10.980]';0.04;-0.545
'[09:00:10.984]';0.05;-0.54
'[09:00:10.988]';0.04;-0.55
'[09:00:10.992]';0.08;-0.55
'[09:00:10.996]';0.075;-0.55
'[09:00:11.000]';0.05;-0.535
'[09:00:11.004]';0.035;-0.55
'[09:00:11.008]';0.04;-0.535
'[09:00:11.012]';0.07;-0.52
'[09:00:11.016]';0.05;-0.52
'[09:00:11.020]';0.015;-0.515
'[09:00:11.024]';0.005;-0.54
'[09:00:11.028]';0.025;-0.54
'[09:00:11.032]';0.07;-0.52
'[09:00:11.036]';0.115;-0.505
'[09:00:11.040]';0.105;-0.475
'[09:00:11.044]';0.015;-0.46
'[09:00:11.048]';-0.005;-0.485
'[09:00:11.052]';0.03;-0.515
'[09:00:11.056]';0.045;-0.55
'[09:00:11.060]';0.04;-0.55
'[09:00:11.064]';0.01;-0.555
'[09:00:11.068]';0;-0.555
'[09:00:11.072]';0;-0.54
'[09:00:11.076]';0.005;-0.54
'[09:00:11.080]';0.035;-0.53
'[09:00:11.084]';0.045;-0.525
'[09:00:11.088]';0.045;-0.52
'[09:00:11.092]';0.035;-0.52
'[09:00:11.096]';0.05;-0.525
'[09:00:11.100]';0.05;-0.52
'[09:00:11.104]';0.06;-0.54
'[09:00:11.108]';0.05;-0.525
'[09:00:11.112]';0.055;-0.535
'[09:00:11.116]';0.065;-0.535
'[09:00:11.120]';0.11;-0.545
'[09:00:11.124]';0.095;-0.545
'[09:00:11.128]';0.06;-0.555
'[09:00:11.132]';0.07;-0.55
'[09:00:11.136]';0.125;-0.555
'[09:00:11.140]';0.14;-0.555
'[09:00:11.144]';0.09;-0.555
'[09:00:11.148]';0.035;-0.535
'[09:00:11.152]';0.03;-0.525
'[09:00:11.156]';0.065;-0.525
'[09:00:11.160]';0.105;-0.54
'[09:00:11.164]';0.055;-0.555
'[09:00:11.168]';-0.015;-0.56
'[09:00:11.172]';-0.05;-0.555
'[09:00:11.176]';-0.015;-0.535
'[09:00:11.180]';0.01;-0.55
'[09:00:11.184]';0.05;-0.565
'[09:00:11.188]';0.065;-0.555
'[09:00:11.192]';0.005;-0.545
'[09:00:11.196]';0;-0.52
'[09:00:11.200]';0.03;-0.48
'[09:00:11.204]';0.015;-0.445
'[09:00:11.208]';0;-0.44
'[09:00:11.212]';-0.035;-0.455
'[09:00:11.216]';0.035;-0.49
'[09:00:11.220]';0.105;-0.485
'[09:00:11.224]';0.14;-0.465
'[09:00:11.228]';0.1;-0.455
'[09:00:11.232]';-0.075;-0.445
'[09:00:11.236]';-0.29;-0.42
'[09:00:11.240]';-0.385;-0.41
'[09:00:11.244]';-0.36;-0.39
'[09:00:11.248]';-0.3;-0.415
'[09:00:11.252]';-0.24;-0.465
'[09:00:11.256]';-0.13;-0.52
'[09:00:11.260]';-0.07;-0.55
'[09:00:11.264]';-0.04;-0.56
'[09:00:11.268]';0;-0.575
'[09:00:11.272]';0.025;-0.575
'[09:00:11.276]';0.085;-0.565
'[09:00:11.280]';0.09;-0.56
'[09:00:11.284]';0.035;-0.555
'[09:00:11.288]';0.035;-0.57
'[09:00:11.292]';0.05;-0.58
'[09:00:11.296]';0.065;-0.59
'[09:00:11.300]';0.075;-0.595
'[09:00:11.304]';0.07;-0.615
'[09:00:11.308]';0.07;-0.615
'[09:00:11.312]';0.075;-0.62
'[09:00:11.316]';0.055;-0.635
'[09:00:11.320]';0.04;-0.635
'[09:00:11.324]';0.045;-0.635
'[09:00:11.328]';0.05;-0.63
'[09:00:11.332]';0.05;-0.63
'[09:00:11.336]';0.06;-0.62
'[09:00:11.340]';0.045;-0.605
'[09:00:11.344]';0.045;-0.62
'[09:00:11.348]';0.05;-0.615
'[09:00:11.352]';0.075;-0.625
'[09:00:11.356]';0.085;-0.625
'[09:00:11.360]';0.085;-0.625
'[09:00:11.364]';0.09;-0.62
'[09:00:11.368]';0.09;-0.63
'[09:00:11.372]';0.09;-0.64
'[09:00:11.376]';0.1;-0.63
'[09:00:11.380]';0.095;-0.625
'[09:00:11.384]';0.08;-0.63
'[09:00:11.388]';0.095;-0.645
'[09:00:11.392]';0.09;-0.655
'[09:00:11.396]';0.08;-0.655
'[09:00:11.400]';0.1;-0.66
'[09:00:11.404]';0.11;-0.655
'[09:00:11.408]';0.12;-0.66
'[09:00:11.412]';0.12;-0.665
'[09:00:11.416]';0.125;-0.65
'[09:00:11.420]';0.1;-0.655
'[09:00:11.424]';0.07;-0.65
'[09:00:11.428]';0.07;-0.65
'[09:00:11.432]';0.08;-0.635
'[09:00:11.436]';0.09;-0.64
'[09:00:11.440]';0.08;-0.645
'[09:00:11.444]';0.09;-0.66
'[09:00:11.448]';0.09;-0.66
'[09:00:11.452]';0.11;-0.655
'[09:00:11.456]';0.07;-0.64
'[09:00:11.460]';0.06;-0.64
'[09:00:11.464]';0.015;-0.645
'[09:00:11.468]';-0.025;-0.645
'[09:00:11.472]';-0.03;-0.635
'[09:00:11.476]';0.01;-0.635
'[09:00:11.480]';0.03;-0.625
'[09:00:11.484]';0.035;-0.65
'[09:00:11.488]';0.04;-0.64
'[09:00:11.492]';0.035;-0.64
'[09:00:11.496]';0.055;-0.64
'[09:00:11.500]';0.11;-0.64
'[09:00:11.504]';0.125;-0.625
'[09:00:11.508]';0.085;-0.625
'[09:00:11.512]';0.055;-0.625
'[09:00:11.516]';0.02;-0.625
'[09:00:11.520]';0.035;-0.61
'[09:00:11.524]';0.045;-0.61
'[09:00:11.528]';0.06;-0.62
'[09:00:11.532]';0.085;-0.605
'[09:00:11.536]';0.105;-0.605
'[09:00:11.540]';0.095;-0.605
'[09:00:11.544]';0.11;-0.62
'[09:00:11.548]';0.105;-0.62
'[09:00:11.552]';0.115;-0.63
'[09:00:11.556]';0.105;-0.615
'[09:00:11.560]';0.1;-0.615
'[09:00:11.564]';0.085;-0.625
'[09:00:11.568]';0.085;-0.62
'[09:00:11.572]';0.08;-0.615
'[09:00:11.576]';0.07;-0.62
'[09:00:11.580]';0.09;-0.615
'[09:00:11.584]';0.065;-0.625
'[09:00:11.588]';0.07;-0.635
'[09:00:11.592]';0.075;-0.635
'[09:00:11.596]';0.075;-0.62
'[09:00:11.600]';0.075;-0.615
'[09:00:11.604]';0.075;-0.62
'[09:00:11.608]';0.075;-0.63
'[09:00:11.612]';0.075;-0.65
'[09:00:11.616]';0.07;-0.66
'[09:00:11.620]';0.095;-0.655
'[09:00:11.624]';0.105;-0.655
'[09:00:11.628]';0.08;-0.66
'[09:00:11.632]';0.07;-0.65
'[09:00:11.636]';0.08;-0.66
'[09:00:11.640]';0.095;-0.65
'[09:00:11.644]';0.095;-0.67
'[09:00:11.648]';0.08;-0.665
'[09:00:11.652]';0.125;-0.65
'[09:00:11.656]';0.115;-0.655
'[09:00:11.660]';0.06;-0.645
'[09:00:11.664]';0.015;-0.65
'[09:00:11.668]';0.045;-0.645
'[09:00:11.672]';0.065;-0.63
'[09:00:11.676]';0.085;-0.64
'[09:00:11.680]';0.09;-0.64
'[09:00:11.684]';0.075;-0.66
'[09:00:11.688]';0.1;-0.645
'[09:00:11.692]';0.1;-0.64
'[09:00:11.696]';0.095;-0.635
'[09:00:11.700]';0.125;-0.655
'[09:00:11.704]';0.11;-0.64
'[09:00:11.708]';0.045;-0.64
'[09:00:11.712]';0.015;-0.64
'[09:00:11.716]';0.02;-0.675
'[09:00:11.720]';0.055;-0.68
'[09:00:11.724]';0.075;-0.68
'[09:00:11.728]';0.06;-0.665
'[09:00:11.732]';0.055;-0.625
'[09:00:11.736]';0.055;-0.595
'[09:00:11.740]';0.07;-0.575
'[09:00:11.744]';0.06;-0.525
'[09:00:11.748]';0.04;-0.485
'[09:00:11.752]';0.04;-0.475
'[09:00:11.756]';0.045;-0.48
'[09:00:11.760]';0.015;-0.46
'[09:00:11.764]';0.075;-0.45
'[09:00:11.768]';0.145;-0.435
'[09:00:11.772]';0.22;-0.44
'[09:00:11.776]';0.24;-0.505
'[09:00:11.780]';0.285;-0.585
'[09:00:11.784]';0.345;-0.695
'[09:00:11.788]';0.395;-0.79
'[09:00:11.792]';0.43;-0.815
'[09:00:11.796]';0.41;-0.84
'[09:00:11.800]';0.375;-0.865
'[09:00:11.804]';0.255;-0.885
'[09:00:11.808]';0.145;-0.845
'[09:00:11.812]';0.095;-0.805
'[09:00:11.816]';0.075;-0.78
'[09:00:11.820]';0.1;-0.76
'[09:00:11.824]';0.12;-0.765
'[09:00:11.828]';0.14;-0.735
'[09:00:11.832]';0.125;-0.7
'[09:00:11.836]';0.1;-0.695
'[09:00:11.840]';0.095;-0.695
'[09:00:11.844]';0.1;-0.675
'[09:00:11.848]';0.09;-0.685
'[09:00:11.852]';0.08;-0.665
'[09:00:11.856]';0.085;-0.68
'[09:00:11.860]';0.075;-0.675
'[09:00:11.864]';0.075;-0.67
'[09:00:11.868]';0.05;-0.68
'[09:00:11.872]';0.055;-0.675
'[09:00:11.876]';0.07;-0.675
'[09:00:11.880]';0.115;-0.675
'[09:00:11.884]';0.195;-0.68
'[09:00:11.888]';0.17;-0.68
'[09:00:11.892]';0;-0.67
'[09:00:11.896]';-0.075;-0.685
'[09:00:11.900]';-0.055;-0.68
'[09:00:11.904]';0.03;-0.675
'[09:00:11.908]';0.085;-0.685
'[09:00:11.912]';0.135;-0.685
'[09:00:11.916]';0.12;-0.68
'[09:00:11.920]';0.035;-0.675
'[09:00:11.924]';-0.035;-0.66
'[09:00:11.928]';-0.035;-0.65
'[09:00:11.932]';-0.005;-0.66
'[09:00:11.936]';0.02;-0.665
'[09:00:11.940]';0;-0.68
'[09:00:11.944]';0;-0.675
'[09:00:11.948]';-0.01;-0.655
'[09:00:11.952]';-0.01;-0.635
'[09:00:11.956]';-0.015;-0.625
'[09:00:11.960]';-0.02;-0.655
'[09:00:11.964]';-0.02;-0.685
'[09:00:11.968]';-0.025;-0.695
'[09:00:11.972]';0;-0.675
'[09:00:11.976]';-0.005;-0.67
'[09:00:11.980]';0;-0.65
'[09:00:11.984]';-0.025;-0.64
'[09:00:11.988]';-0.025;-0.65
'[09:00:11.992]';-0.04;-0.625
'[09:00:11.996]';-0.035;-0.63
'[09:00:12.000]';-0.05;-0.64
'[09:00:12.004]';-0.05;-0.635
'[09:00:12.008]';-0.055;-0.625
'[09:00:12.012]';-0.035;-0.62
'[09:00:12.016]';-0.04;-0.63
'[09:00:12.020]';-0.025;-0.64
'[09:00:12.024]';0;-0.635
'[09:00:12.028]';0.015;-0.635
'[09:00:12.032]';0;-0.66
'[09:00:12.036]';0.025;-0.65
'[09:00:12.040]';0.01;-0.655
'[09:00:12.044]';0;-0.665
'[09:00:12.048]';-0.03;-0.67
'[09:00:12.052]';-0.005;-0.675
'[09:00:12.056]';0.035;-0.67
'[09:00:12.060]';0.055;-0.675
'[09:00:12.064]';0.045;-0.68
'[09:00:12.068]';0.045;-0.675
'[09:00:12.072]';0.045;-0.68
'[09:00:12.076]';0.055;-0.665
'[09:00:12.080]';0.06;-0.65
'[09:00:12.084]';0.085;-0.665
'[09:00:12.088]';0.085;-0.67
'[09:00:12.092]';0.07;-0.68
'[09:00:12.096]';0.09;-0.675
'[09:00:12.100]';0.08;-0.7
'[09:00:12.104]';0.1;-0.725
'[09:00:12.108]';0.12;-0.73
'[09:00:12.112]';0.12;-0.735
'[09:00:12.116]';0.115;-0.735
'[09:00:12.120]';0.145;-0.705
'[09:00:12.124]';0.135;-0.7
'[09:00:12.128]';0.13;-0.695
'[09:00:12.132]';0.11;-0.69
'[09:00:12.136]';0.125;-0.685
'[09:00:12.140]';0.125;-0.68
'[09:00:12.144]';0.135;-0.69
'[09:00:12.148]';0.1;-0.685
'[09:00:12.152]';0.125;-0.68
'[09:00:12.156]';0.15;-0.675
'[09:00:12.160]';0.17;-0.685
'[09:00:12.164]';0.135;-0.67
'[09:00:12.168]';0.065;-0.675
'[09:00:12.172]';0.03;-0.68
'[09:00:12.176]';0.055;-0.68
'[09:00:12.180]';0.085;-0.675
'[09:00:12.184]';0.09;-0.685
'[09:00:12.188]';0.07;-0.685
'[09:00:12.192]';0.075;-0.675
'[09:00:12.196]';0.08;-0.685
'[09:00:12.200]';0.04;-0.68
'[09:00:12.204]';-0.015;-0.685
'[09:00:12.208]';0.005;-0.68
'[09:00:12.212]';0.045;-0.665
'[09:00:12.216]';0.09;-0.66
'[09:00:12.220]';0.11;-0.655
'[09:00:12.224]';0.085;-0.665
'[09:00:12.228]';0.05;-0.68
'[09:00:12.232]';0.045;-0.665
'[09:00:12.236]';0.07;-0.655
'[09:00:12.240]';0.09;-0.67
'[09:00:12.244]';0.11;-0.68
'[09:00:12.248]';0.125;-0.715
'[09:00:12.252]';0.095;-0.715
'[09:00:12.256]';0.11;-0.71
'[09:00:12.260]';0.11;-0.705
'[09:00:12.264]';0.11;-0.7
'[09:00:12.268]';0.09;-0.695
'[09:00:12.272]';0.1;-0.69
'[09:00:12.276]';0.13;-0.705
'[09:00:12.280]';0.125;-0.69
'[09:00:12.284]';0.07;-0.7
'[09:00:12.288]';-0.005;-0.705
'[09:00:12.292]';-0.025;-0.705
'[09:00:12.296]';0.02;-0.695
'[09:00:12.300]';0.05;-0.695
'[09:00:12.304]';0.065;-0.7
'[09:00:12.308]';0.075;-0.7
'[09:00:12.312]';0.08;-0.71
'[09:00:12.316]';0.07;-0.715
'[09:00:12.320]';0.055;-0.69
'[09:00:12.324]';0.035;-0.695
'[09:00:12.328]';0.01;-0.695
'[09:00:12.332]';0.04;-0.69
'[09:00:12.336]';0.05;-0.695
'[09:00:12.340]';0.035;-0.71
'[09:00:12.344]';0.04;-0.695
'[09:00:12.348]';0.055;-0.695
'[09:00:12.352]';0.075;-0.695
'[09:00:12.356]';0.12;-0.675
'[09:00:12.360]';0.13;-0.675
'[09:00:12.364]';0.085;-0.665
'[09:00:12.368]';0.06;-0.665
'[09:00:12.372]';0.05;-0.65
'[09:00:12.376]';0.085;-0.61
'[09:00:12.380]';0.11;-0.575
'[09:00:12.384]';0.08;-0.585
'[09:00:12.388]';0.015;-0.59
'[09:00:12.392]';0.04;-0.6
'[09:00:12.396]';0.1;-0.6
'[09:00:12.400]';0.075;-0.585
'[09:00:12.404]';0.03;-0.565
'[09:00:12.408]';-0.1;-0.55
'[09:00:12.412]';-0.23;-0.535
'[09:00:12.416]';-0.315;-0.505
'[09:00:12.420]';-0.31;-0.48
'[09:00:12.424]';-0.27;-0.485
'[09:00:12.428]';-0.215;-0.53
'[09:00:12.432]';-0.14;-0.615
'[09:00:12.436]';-0.115;-0.69
'[09:00:12.440]';-0.1;-0.7
'[09:00:12.444]';-0.04;-0.71
'[09:00:12.448]';0;-0.72
'[09:00:12.452]';0.04;-0.715
'[09:00:12.456]';0.125;-0.71
'[09:00:12.460]';0.185;-0.69
'[09:00:12.464]';0.1;-0.675
'[09:00:12.468]';-0.01;-0.675
'[09:00:12.472]';-0.035;-0.695
'[09:00:12.476]';0.015;-0.7
'[09:00:12.480]';0.075;-0.7
'[09:00:12.484]';0.075;-0.695
'[09:00:12.488]';0.06;-0.69
'[09:00:12.492]';0.12;-0.69
'[09:00:12.496]';0.11;-0.72
'[09:00:12.500]';0.04;-0.75
'[09:00:12.504]';-0.025;-0.745
'[09:00:12.508]';0.005;-0.725
'[09:00:12.512]';0.075;-0.695
'[09:00:12.516]';0.145;-0.695
'[09:00:12.520]';0.2;-0.715
'[09:00:12.524]';0.175;-0.7
'[09:00:12.528]';0.085;-0.71
'[09:00:12.532]';0.025;-0.71
'[09:00:12.536]';0.045;-0.72
'[09:00:12.540]';0.095;-0.71
'[09:00:12.544]';0.105;-0.7
'[09:00:12.548]';0.115;-0.695
'[09:00:12.552]';0.12;-0.695
'[09:00:12.556]';0.12;-0.69
'[09:00:12.560]';0.155;-0.69
'[09:00:12.564]';0.135;-0.695
'[09:00:12.568]';0.095;-0.72
'[09:00:12.572]';0.035;-0.72
'[09:00:12.576]';0.055;-0.71
'[09:00:12.580]';0.05;-0.685
'[09:00:12.584]';0.06;-0.7
'[09:00:12.588]';0.07;-0.7
'[09:00:12.592]';0.07;-0.715
'[09:00:12.596]';0.105;-0.72
'[09:00:12.600]';0.205;-0.715
'[09:00:12.604]';0.255;-0.73
'[09:00:12.608]';0.09;-0.72
'[09:00:12.612]';-0.055;-0.7
'[09:00:12.616]';-0.065;-0.695
'[09:00:12.620]';-0.01;-0.67
'[09:00:12.624]';0.055;-0.685
'[09:00:12.628]';0.08;-0.71
'[09:00:12.632]';0.13;-0.73
'[09:00:12.636]';0.16;-0.695
'[09:00:12.640]';0.11;-0.68
'[09:00:12.644]';0.075;-0.685
'[09:00:12.648]';0.095;-0.68
'[09:00:12.652]';0.065;-0.675
'[09:00:12.656]';0.04;-0.675
'[09:00:12.660]';0.09;-0.685
'[09:00:12.664]';0.13;-0.675
'[09:00:12.668]';0.095;-0.67
'[09:00:12.672]';0.045;-0.66
'[09:00:12.676]';0.06;-0.655
'[09:00:12.680]';0.05;-0.65
'[09:00:12.684]';0.065;-0.635
'[09:00:12.688]';0.135;-0.66
'[09:00:12.692]';0.175;-0.65
'[09:00:12.696]';0.17;-0.665
'[09:00:12.700]';0.075;-0.665
'[09:00:12.704]';0.015;-0.63
'[09:00:12.708]';0.035;-0.615
'[09:00:12.712]';0.105;-0.615
'[09:00:12.716]';0.11;-0.64
'[09:00:12.720]';0.065;-0.655
'[09:00:12.724]';0;-0.66
'[09:00:12.728]';-0.02;-0.64
'[09:00:12.732]';0;-0.625
'[09:00:12.736]';0.015;-0.635
'[09:00:12.740]';0.05;-0.635
'[09:00:12.744]';0.08;-0.615
'[09:00:12.748]';0.11;-0.61
'[09:00:12.752]';0.095;-0.625
'[09:00:12.756]';0.035;-0.64
'[09:00:12.760]';0.035;-0.665
'[09:00:12.764]';0.07;-0.665
'[09:00:12.768]';0.095;-0.66
'[09:00:12.772]';0.105;-0.64
'[09:00:12.776]';0.085;-0.615
'[09:00:12.780]';0.06;-0.62
'[09:00:12.784]';0.055;-0.61
'[09:00:12.788]';0.04;-0.61
'[09:00:12.792]';0.04;-0.595
'[09:00:12.796]';0.07;-0.595
'[09:00:12.800]';0.105;-0.6
'[09:00:12.804]';0.135;-0.6
'[09:00:12.808]';0.11;-0.615
'[09:00:12.812]';0.09;-0.61
'[09:00:12.816]';0.095;-0.61
'[09:00:12.820]';0.085;-0.615
'[09:00:12.824]';0.085;-0.61
'[09:00:12.828]';0.095;-0.6
'[09:00:12.832]';0.095;-0.595
'[09:00:12.836]';0.145;-0.575
'[09:00:12.840]';0.165;-0.575
'[09:00:12.844]';0.145;-0.58
'[09:00:12.848]';0.1;-0.565
'[09:00:12.852]';0.05;-0.56
'[09:00:12.856]';0;-0.555
'[09:00:12.860]';0.015;-0.535
'[09:00:12.864]';0.095;-0.52
'[09:00:12.868]';0.13;-0.485
'[09:00:12.872]';0.16;-0.49
'[09:00:12.876]';0.18;-0.51
'[09:00:12.880]';0.075;-0.53
'[09:00:12.884]';-0.02;-0.52
'[09:00:12.888]';-0.05;-0.505
'[09:00:12.892]';0.01;-0.515
'[09:00:12.896]';0.06;-0.53
'[09:00:12.900]';0.09;-0.54
'[09:00:12.904]';0.105;-0.55
'[09:00:12.908]';0.105;-0.565
'[09:00:12.912]';0.115;-0.565
'[09:00:12.916]';0.13;-0.56
'[09:00:12.920]';0.175;-0.54
'[09:00:12.924]';0.21;-0.515
'[09:00:12.928]';0.16;-0.48
'[09:00:12.932]';0.04;-0.445
'[09:00:12.936]';-0.015;-0.425
'[09:00:12.940]';-0.025;-0.415
'[09:00:12.944]';0.04;-0.44
'[09:00:12.948]';0.13;-0.435
'[09:00:12.952]';0.15;-0.445
'[09:00:12.956]';0.1;-0.415
'[09:00:12.960]';0.05;-0.395
'[09:00:12.964]';-0.045;-0.39
'[09:00:12.968]';-0.195;-0.36
'[09:00:12.972]';-0.325;-0.35
'[09:00:12.976]';-0.33;-0.32
'[09:00:12.980]';-0.31;-0.31
'[09:00:12.984]';-0.24;-0.355
'[09:00:12.988]';-0.165;-0.41
'[09:00:12.992]';-0.1;-0.465
'[09:00:12.996]';-0.065;-0.485
'[09:00:13.000]';-0.025;-0.475
'[09:00:13.004]';0.03;-0.47
'[09:00:13.008]';0.07;-0.455
'[09:00:13.012]';0.075;-0.46
'[09:00:13.016]';0.025;-0.48
'[09:00:13.020]';0.02;-0.515
'[09:00:13.024]';0.135;-0.515
'[09:00:13.028]';0.23;-0.53
'[09:00:13.032]';0.19;-0.52
'[09:00:13.036]';0.17;-0.495
'[09:00:13.040]';0.14;-0.5
'[09:00:13.044]';0.01;-0.485
'[09:00:13.048]';-0.1;-0.47
'[09:00:13.052]';-0.055;-0.49
'[09:00:13.056]';0.025;-0.49
'[09:00:13.060]';0.01;-0.5
'[09:00:13.064]';0.025;-0.495
'[09:00:13.068]';0.02;-0.485
'[09:00:13.072]';0.07;-0.485
'[09:00:13.076]';0.09;-0.475
'[09:00:13.080]';0.1;-0.475
'[09:00:13.084]';0.085;-0.465
'[09:00:13.088]';0.065;-0.455
'[09:00:13.092]';0.05;-0.45
'[09:00:13.096]';0.05;-0.44
'[09:00:13.100]';0.085;-0.44
'[09:00:13.104]';0.11;-0.45
'[09:00:13.108]';0.085;-0.46
'[09:00:13.112]';0.055;-0.42
'[09:00:13.116]';0.045;-0.4
'[09:00:13.120]';0.075;-0.405
'[09:00:13.124]';0.12;-0.45
'[09:00:13.128]';0.12;-0.49
'[09:00:13.132]';0.065;-0.485
'[09:00:13.136]';0.03;-0.49
'[09:00:13.140]';0.115;-0.48
'[09:00:13.144]';0.225;-0.475
'[09:00:13.148]';0.23;-0.445
'[09:00:13.152]';0.17;-0.44
'[09:00:13.156]';0.015;-0.43
'[09:00:13.160]';-0.06;-0.44
'[09:00:13.164]';-0.005;-0.44
'[09:00:13.168]';0.03;-0.44
'[09:00:13.172]';0.01;-0.44
'[09:00:13.176]';-0.01;-0.435
'[09:00:13.180]';0.03;-0.425
'[09:00:13.184]';0.01;-0.435
'[09:00:13.188]';0.01;-0.42
'[09:00:13.192]';0.05;-0.4
'[09:00:13.196]';0.09;-0.38
'[09:00:13.200]';0.095;-0.37
'[09:00:13.204]';0.095;-0.355
'[09:00:13.208]';0.035;-0.35
'[09:00:13.212]';-0.005;-0.37
'[09:00:13.216]';0;-0.4
'[09:00:13.220]';0.045;-0.44
'[09:00:13.224]';0.065;-0.455
'[09:00:13.228]';0.105;-0.445
'[09:00:13.232]';0.11;-0.42
'[09:00:13.236]';0.11;-0.425
'[09:00:13.240]';0.05;-0.41
'[09:00:13.244]';0;-0.395
'[09:00:13.248]';-0.005;-0.385
'[09:00:13.252]';0.015;-0.385
'[09:00:13.256]';0.035;-0.375
'[09:00:13.260]';0.035;-0.37
'[09:00:13.264]';0.045;-0.375
'[09:00:13.268]';0.04;-0.36
'[09:00:13.272]';0.04;-0.36
'[09:00:13.276]';0.045;-0.38
'[09:00:13.280]';0.035;-0.365
'[09:00:13.284]';0.05;-0.375
'[09:00:13.288]';0.04;-0.36
'[09:00:13.292]';0.045;-0.38
'[09:00:13.296]';0.05;-0.365
'[09:00:13.300]';0.055;-0.38
'[09:00:13.304]';0.055;-0.38
'[09:00:13.308]';0.05;-0.375
'[09:00:13.312]';0.06;-0.375
'[09:00:13.316]';0.095;-0.365
'[09:00:13.320]';0.11;-0.36
'[09:00:13.324]';0.115;-0.345
'[09:00:13.328]';0.14;-0.355
'[09:00:13.332]';0.09;-0.365
'[09:00:13.336]';-0.03;-0.4
'[09:00:13.340]';-0.09;-0.425
'[09:00:13.344]';-0.07;-0.44
'[09:00:13.348]';-0.005;-0.415
'[09:00:13.352]';0.08;-0.38
'[09:00:13.356]';0.045;-0.375
'[09:00:13.360]';-0.04;-0.38
'[09:00:13.364]';-0.055;-0.395
'[09:00:13.368]';-0.035;-0.395
'[09:00:13.372]';0.01;-0.395
'[09:00:13.376]';0.015;-0.37
'[09:00:13.380]';0.045;-0.36
'[09:00:13.384]';0.085;-0.375
'[09:00:13.388]';0.15;-0.375
'[09:00:13.392]';0.11;-0.365
'[09:00:13.396]';0.045;-0.35
'[09:00:13.400]';-0.005;-0.33
'[09:00:13.404]';-0.015;-0.32
'[09:00:13.408]';0.01;-0.32
'[09:00:13.412]';0.04;-0.34
'[09:00:13.416]';0.07;-0.335
'[09:00:13.420]';0.065;-0.32
'[09:00:13.424]';0.04;-0.31
'[09:00:13.428]';0.07;-0.305
'[09:00:13.432]';0.02;-0.32
'[09:00:13.436]';-0.06;-0.3
'[09:00:13.440]';-0.125;-0.325
'[09:00:13.444]';-0.095;-0.325
'[09:00:13.448]';-0.035;-0.33
'[09:00:13.452]';-0.005;-0.345
'[09:00:13.456]';0.01;-0.335
'[09:00:13.460]';0;-0.33
'[09:00:13.464]';-0.025;-0.33
'[09:00:13.468]';-0.035;-0.325
'[09:00:13.472]';-0.015;-0.325
'[09:00:13.476]';0.005;-0.34
'[09:00:13.480]';0;-0.345
'[09:00:13.484]';0.005;-0.34
'[09:00:13.488]';0.035;-0.335
'[09:00:13.492]';0.055;-0.315
'[09:00:13.496]';0.065;-0.3
'[09:00:13.500]';0.04;-0.285
'[09:00:13.504]';0.08;-0.295
'[09:00:13.508]';0.04;-0.28
'[09:00:13.512]';-0.025;-0.285
'[09:00:13.516]';-0.1;-0.3
'[09:00:13.520]';-0.075;-0.32
'[09:00:13.524]';-0.025;-0.32
'[09:00:13.528]';0.115;-0.32
'[09:00:13.532]';0.255;-0.31
'[09:00:13.536]';0.175;-0.3
'[09:00:13.540]';0.02;-0.28
'[09:00:13.544]';-0.12;-0.295
'[09:00:13.548]';-0.175;-0.3
'[09:00:13.552]';-0.125;-0.305
'[09:00:13.556]';-0.05;-0.305
'[09:00:13.560]';-0.02;-0.295
'[09:00:13.564]';0;-0.295
'[09:00:13.568]';0.035;-0.29
'[09:00:13.572]';0.03;-0.295
'[09:00:13.576]';0.03;-0.29
'[09:00:13.580]';0.06;-0.29
'[09:00:13.584]';0.035;-0.285
'[09:00:13.588]';0.005;-0.275
'[09:00:13.592]';0.09;-0.285
'[09:00:13.596]';0.2;-0.29
'[09:00:13.600]';0.115;-0.26
'[09:00:13.604]';-0.025;-0.23
'[09:00:13.608]';-0.08;-0.24
'[09:00:13.612]';-0.11;-0.26
'[09:00:13.616]';-0.065;-0.27
'[09:00:13.620]';-0.01;-0.285
'[09:00:13.624]';0.1;-0.305
'[09:00:13.628]';0.115;-0.32
'[09:00:13.632]';0.02;-0.325
'[09:00:13.636]';-0.08;-0.295
'[09:00:13.640]';-0.07;-0.28
'[09:00:13.644]';-0.035;-0.25
'[09:00:13.648]';0;-0.2
'[09:00:13.652]';0.05;-0.175
'[09:00:13.656]';0.055;-0.175
'[09:00:13.660]';-0.01;-0.2
'[09:00:13.664]';-0.04;-0.225
'[09:00:13.668]';0.01;-0.2
'[09:00:13.672]';0.045;-0.165
'[09:00:13.676]';0.005;-0.15
'[09:00:13.680]';-0.105;-0.145
'[09:00:13.684]';-0.255;-0.17
'[09:00:13.688]';-0.355;-0.18
'[09:00:13.692]';-0.32;-0.165
'[09:00:13.696]';-0.17;-0.17
'[09:00:13.700]';-0.035;-0.195
'[09:00:13.704]';-0.09;-0.23
'[09:00:13.708]';-0.24;-0.265
'[09:00:13.712]';-0.215;-0.28
'[09:00:13.716]';-0.07;-0.285
'[09:00:13.720]';0.045;-0.32
'[09:00:13.724]';0.115;-0.32
'[09:00:13.728]';0.105;-0.325
'[09:00:13.732]';-0.035;-0.29
'[09:00:13.736]';-0.155;-0.265
'[09:00:13.740]';-0.1;-0.28
'[09:00:13.744]';-0.02;-0.28
'[09:00:13.748]';0.005;-0.29
'[09:00:13.752]';0.015;-0.28
'[09:00:13.756]';0;-0.275
'[09:00:13.760]';0.005;-0.265
'[09:00:13.764]';0.015;-0.26
'[09:00:13.768]';0.035;-0.26
'[09:00:13.772]';0.06;-0.265
'[09:00:13.776]';0.085;-0.315
'[09:00:13.780]';0.1;-0.32
'[09:00:13.784]';0.15;-0.3
'[09:00:13.788]';0.17;-0.285
'[09:00:13.792]';0.105;-0.26
'[09:00:13.796]';-0.025;-0.26
'[09:00:13.800]';-0.065;-0.27
'[09:00:13.804]';0.025;-0.25
'[09:00:13.808]';0.115;-0.25
'[09:00:13.812]';0.185;-0.26
'[09:00:13.816]';0.175;-0.285
'[09:00:13.820]';0.015;-0.3
'[09:00:13.824]';-0.12;-0.3
'[09:00:13.828]';-0.155;-0.29
'[09:00:13.832]';-0.115;-0.3
'[09:00:13.836]';-0.04;-0.305
'[09:00:13.840]';0.045;-0.3
'[09:00:13.844]';0.065;-0.28
'[09:00:13.848]';0.02;-0.3
'[09:00:13.852]';-0.02;-0.32
'[09:00:13.856]';-0.015;-0.34
'[09:00:13.860]';0.045;-0.32
'[09:00:13.864]';0.065;-0.315
'[09:00:13.868]';0.05;-0.32
'[09:00:13.872]';0.075;-0.32
'[09:00:13.876]';0.01;-0.325
'[09:00:13.880]';-0.07;-0.345
'[09:00:13.884]';-0.035;-0.35
'[09:00:13.888]';-0.005;-0.355
'[09:00:13.892]';0.01;-0.33
'[09:00:13.896]';0.025;-0.335
'[09:00:13.900]';0.06;-0.33
'[09:00:13.904]';0.03;-0.34
'[09:00:13.908]';-0.025;-0.335
'[09:00:13.912]';-0.065;-0.325
'[09:00:13.916]';-0.105;-0.35
'[09:00:13.920]';-0.09;-0.33
'[09:00:13.924]';-0.035;-0.315
'[09:00:13.928]';-0.005;-0.32
'[09:00:13.932]';0.04;-0.285
'[09:00:13.936]';0.1;-0.255
'[09:00:13.940]';0.105;-0.235
'[09:00:13.944]';0.045;-0.255
'[09:00:13.948]';0.005;-0.265
'[09:00:13.952]';-0.075;-0.26
'[09:00:13.956]';-0.16;-0.27
'[09:00:13.960]';-0.135;-0.28
'[09:00:13.964]';-0.08;-0.27
'[09:00:13.968]';-0.075;-0.275
'[09:00:13.972]';-0.075;-0.28
'[09:00:13.976]';-0.06;-0.275
'[09:00:13.980]';-0.055;-0.26
'[09:00:13.984]';-0.03;-0.265
'[09:00:13.988]';0.08;-0.27
'[09:00:13.992]';0.185;-0.285
'[09:00:13.996]';0.09;-0.275
'[09:00:14.000]';-0.155;-0.24
'[09:00:14.004]';-0.25;-0.22
'[09:00:14.008]';-0.2;-0.24
'[09:00:14.012]';-0.09;-0.26
'[09:00:14.016]';0.005;-0.22
'[09:00:14.020]';0;-0.19
'[09:00:14.024]';-0.035;-0.185
'[09:00:14.028]';-0.04;-0.215
'[09:00:14.032]';0.015;-0.21
'[09:00:14.036]';0.01;-0.185
'[09:00:14.040]';-0.035;-0.17
'[09:00:14.044]';-0.115;-0.195
'[09:00:14.048]';-0.16;-0.215
'[09:00:14.052]';-0.155;-0.23
'[09:00:14.056]';-0.105;-0.25
'[09:00:14.060]';-0.055;-0.26
'[09:00:14.064]';0.06;-0.22
'[09:00:14.068]';0.105;-0.18
'[09:00:14.072]';-0.02;-0.165
'[09:00:14.076]';-0.15;-0.185
'[09:00:14.080]';-0.16;-0.225
'[09:00:14.084]';-0.115;-0.24
'[09:00:14.088]';-0.07;-0.19
'[09:00:14.092]';-0.05;-0.19
'[09:00:14.096]';-0.015;-0.2
'[09:00:14.100]';0.005;-0.18
'[09:00:14.104]';-0.025;-0.14
'[09:00:14.108]';-0.06;-0.135
'[09:00:14.112]';0.015;-0.15
'[09:00:14.116]';0.085;-0.175
'[09:00:14.120]';-0.005;-0.16
'[09:00:14.124]';-0.15;-0.115
'[09:00:14.128]';-0.23;-0.085
'[09:00:14.132]';-0.125;-0.075
'[09:00:14.136]';-0.115;-0.07
'[09:00:14.140]';-0.135;-0.055
'[09:00:14.144]';-0.175;-0.065
'[09:00:14.148]';-0.19;-0.095
'[09:00:14.152]';-0.185;-0.125
'[09:00:14.156]';-0.1;-0.12
'[09:00:14.160]';-0.03;-0.1
'[09:00:14.164]';-0.04;-0.08
'[09:00:14.168]';-0.095;-0.065
'[09:00:14.172]';-0.155;-0.05
'[09:00:14.176]';-0.16;-0.06
'[09:00:14.180]';-0.155;-0.07
'[09:00:14.184]';-0.115;-0.085
'[09:00:14.188]';-0.065;-0.1
'[09:00:14.192]';-0.065;-0.09
'[09:00:14.196]';0;-0.04
'[09:00:14.200]';0.04;-0.01
'[09:00:14.204]';0.01;0
'[09:00:14.208]';-0.105;0
'[09:00:14.212]';-0.09;0.01
'[09:00:14.216]';-0.025;0
'[09:00:14.220]';-0.065;-0.015
'[09:00:14.224]';-0.16;0
'[09:00:14.228]';-0.165;-0.015
'[09:00:14.232]';-0.07;0
'[09:00:14.236]';-0.125;0
'[09:00:14.240]';-0.255;0.025
'[09:00:14.244]';-0.27;0.02
'[09:00:14.248]';-0.2;-0.015
'[09:00:14.252]';-0.175;-0.02
'[09:00:14.256]';-0.18;-0.005
'[09:00:14.260]';-0.14;-0.005
'[09:00:14.264]';-0.1;-0.005
'[09:00:14.268]';-0.08;0.01
'[09:00:14.272]';-0.115;0.02
'[09:00:14.276]';-0.175;0.07
'[09:00:14.280]';-0.18;0.115
'[09:00:14.284]';-0.16;0.11
'[09:00:14.288]';-0.065;0.11
'[09:00:14.292]';0.125;0.115
'[09:00:14.296]';0.13;0.135
'[09:00:14.300]';-0.035;0.14
'[09:00:14.304]';-0.145;0.18
'[09:00:14.308]';-0.24;0.19
'[09:00:14.312]';-0.38;0.165
'[09:00:14.316]';-0.585;0.16
'[09:00:14.320]';-0.69;0.2
'[09:00:14.324]';-0.66;0.22
'[09:00:14.328]';-0.46;0.205
'[09:00:14.332]';-0.28;0.175
'[09:00:14.336]';-0.24;0.135
'[09:00:14.340]';-0.21;0.12
'[09:00:14.344]';-0.15;0.08
'[09:00:14.348]';0.025;0.065
'[09:00:14.352]';0.11;0.035
'[09:00:14.356]';-0.08;0.02
'[09:00:14.360]';-0.25;0.045
'[09:00:14.364]';-0.215;0.07
'[09:00:14.368]';-0.135;0.085
'[09:00:14.372]';-0.165;0.11
'[09:00:14.376]';-0.25;0.105
'[09:00:14.380]';-0.285;0.1
'[09:00:14.384]';-0.265;0.11
'[09:00:14.388]';-0.18;0.1
'[09:00:14.392]';-0.08;0.095
'[09:00:14.396]';0.045;0.11
'[09:00:14.400]';0.07;0.14
'[09:00:14.404]';-0.07;0.15
'[09:00:14.408]';-0.145;0.125
'[09:00:14.412]';-0.05;0.115
'[09:00:14.416]';-0.035;0.12
'[09:00:14.420]';-0.18;0.145
'[09:00:14.424]';-0.295;0.16
'[09:00:14.428]';-0.255;0.15
'[09:00:14.432]';-0.13;0.14
'[09:00:14.436]';0.03;0.125
'[09:00:14.440]';0.12;0.095
'[09:00:14.444]';0.02;0.095
'[09:00:14.448]';-0.12;0.095
'[09:00:14.452]';-0.175;0.1
'[09:00:14.456]';-0.095;0.12
'[09:00:14.460]';-0.085;0.135
'[09:00:14.464]';-0.15;0.145
'[09:00:14.468]';-0.16;0.155
'[09:00:14.472]';-0.085;0.16
'[09:00:14.476]';0.105;0.14
'[09:00:14.480]';0.16;0.125
'[09:00:14.484]';0.045;0.115
'[09:00:14.488]';-0.075;0.095
'[09:00:14.492]';-0.24;0.06
'[09:00:14.496]';-0.345;0.05
'[09:00:14.500]';-0.3;0.1
'[09:00:14.504]';-0.185;0.135
'[09:00:14.508]';-0.105;0.17
'[09:00:14.512]';-0.14;0.19
'[09:00:14.516]';-0.19;0.2
'[09:00:14.520]';-0.15;0.2
'[09:00:14.524]';-0.055;0.18
'[09:00:14.528]';0;0.145
'[09:00:14.532]';-0.045;0.14
'[09:00:14.536]';-0.145;0.155
'[09:00:14.540]';-0.175;0.175
'[09:00:14.544]';-0.2;0.2
'[09:00:14.548]';-0.185;0.17
'[09:00:14.552]';-0.04;0.155
'[09:00:14.556]';0.11;0.14
'[09:00:14.560]';0.06;0.145
'[09:00:14.564]';0.015;0.165
'[09:00:14.568]';-0.045;0.195
'[09:00:14.572]';-0.12;0.2
'[09:00:14.576]';-0.11;0.175
'[09:00:14.580]';-0.085;0.165
'[09:00:14.584]';-0.1;0.185
'[09:00:14.588]';-0.165;0.225
'[09:00:14.592]';-0.235;0.245
'[09:00:14.596]';-0.235;0.26
'[09:00:14.600]';-0.155;0.24
'[09:00:14.604]';-0.02;0.215
'[09:00:14.608]';0.015;0.21
'[09:00:14.612]';-0.08;0.25
'[09:00:14.616]';-0.175;0.245
'[09:00:14.620]';-0.17;0.2
'[09:00:14.624]';-0.155;0.2
'[09:00:14.628]';-0.15;0.19
'[09:00:14.632]';-0.1;0.205
'[09:00:14.636]';-0.055;0.265
'[09:00:14.640]';-0.06;0.265
'[09:00:14.644]';-0.02;0.245
'[09:00:14.648]';0.035;0.245
'[09:00:14.652]';0.07;0.27
'[09:00:14.656]';-0.085;0.27
'[09:00:14.660]';-0.2;0.245
'[09:00:14.664]';-0.21;0.26
'[09:00:14.668]';-0.18;0.305
'[09:00:14.672]';-0.175;0.305
'[09:00:14.676]';-0.17;0.28
'[09:00:14.680]';-0.14;0.27
'[09:00:14.684]';-0.07;0.28
'[09:00:14.688]';-0.005;0.255
'[09:00:14.692]';0.045;0.235
'[09:00:14.696]';0.045;0.215
'[09:00:14.700]';-0.075;0.22
'[09:00:14.704]';-0.14;0.26
'[09:00:14.708]';-0.155;0.255
'[09:00:14.712]';-0.15;0.265
'[09:00:14.716]';-0.135;0.3
'[09:00:14.720]';-0.095;0.31
'[09:00:14.724]';0.04;0.3
'[09:00:14.728]';0.185;0.275
'[09:00:14.732]';0.11;0.28
'[09:00:14.736]';-0.07;0.295
'[09:00:14.740]';-0.12;0.29
'[09:00:14.744]';-0.08;0.275
'[09:00:14.748]';-0.095;0.24
'[09:00:14.752]';-0.1;0.26
'[09:00:14.756]';-0.11;0.25
'[09:00:14.760]';-0.13;0.27
'[09:00:14.764]';-0.145;0.32
'[09:00:14.768]';-0.135;0.315
'[09:00:14.772]';-0.13;0.295
'[09:00:14.776]';-0.135;0.27
'[09:00:14.780]';-0.13;0.27
'[09:00:14.784]';-0.125;0.285
'[09:00:14.788]';-0.085;0.31
'[09:00:14.792]';0.015;0.33
'[09:00:14.796]';0.12;0.35
'[09:00:14.800]';0.125;0.375
'[09:00:14.804]';0.01;0.385
'[09:00:14.808]';-0.155;0.36
'[09:00:14.812]';-0.23;0.33
'[09:00:14.816]';-0.135;0.33
'[09:00:14.820]';0.06;0.355
'[09:00:14.824]';0.155;0.34
'[09:00:14.828]';0.215;0.3
'[09:00:14.832]';0.05;0.35
'[09:00:14.836]';-0.245;0.375
'[09:00:14.840]';-0.325;0.335
'[09:00:14.844]';-0.265;0.33
'[09:00:14.848]';-0.14;0.33
'[09:00:14.852]';-0.035;0.35
'[09:00:14.856]';0.015;0.355
'[09:00:14.860]';0.04;0.365
'[09:00:14.864]';0;0.35
'[09:00:14.868]';-0.11;0.325
'[09:00:14.872]';-0.19;0.325
'[09:00:14.876]';-0.17;0.315
'[09:00:14.880]';-0.13;0.34
'[09:00:14.884]';-0.065;0.34
'[09:00:14.888]';-0.025;0.345
'[09:00:14.892]';0;0.31
'[09:00:14.896]';0.04;0.365
'[09:00:14.900]';0.085;0.38
'[09:00:14.904]';0.115;0.34
'[09:00:14.908]';0.035;0.34
'[09:00:14.912]';-0.125;0.385
'[09:00:14.916]';-0.245;0.375
'[09:00:14.920]';-0.225;0.355
'[09:00:14.924]';-0.155;0.375
'[09:00:14.928]';-0.115;0.41
'[09:00:14.932]';-0.075;0.46
'[09:00:14.936]';-0.13;0.465
'[09:00:14.940]';-0.19;0.45
'[09:00:14.944]';-0.21;0.43
'[09:00:14.948]';-0.14;0.42
'[09:00:14.952]';-0.07;0.455
'[09:00:14.956]';-0.015;0.465
'[09:00:14.960]';-0.075;0.445
'[09:00:14.964]';-0.2;0.425
'[09:00:14.968]';-0.325;0.425
'[09:00:14.972]';-0.41;0.42
'[09:00:14.976]';-0.325;0.445
'[09:00:14.980]';-0.18;0.53
'[09:00:14.984]';-0.15;0.51
'[09:00:14.988]';-0.32;0.45
'[09:00:14.992]';-0.345;0.445
'[09:00:14.996]';-0.255;0.465
'[09:00:15.000]';-0.115;0.45
'[09:00:15.004]';0;0.425
'[09:00:15.008]';0.01;0.435
'[09:00:15.012]';-0.08;0.45
'[09:00:15.016]';-0.185;0.455
'[09:00:15.020]';-0.175;0.42
'[09:00:15.024]';-0.065;0.39
'[09:00:15.028]';0.015;0.37
'[09:00:15.032]';0.03;0.375
'[09:00:15.036]';0;0.37
'[09:00:15.040]';0.04;0.34
'[09:00:15.044]';0.085;0.36
'[09:00:15.048]';0;0.375
'[09:00:15.052]';-0.145;0.355
'[09:00:15.056]';-0.195;0.345
'[09:00:15.060]';-0.155;0.36
'[09:00:15.064]';-0.07;0.365
'[09:00:15.068]';-0.005;0.345
'[09:00:15.072]';0.11;0.375
'[09:00:15.076]';0.2;0.395
'[09:00:15.080]';0.17;0.445
'[09:00:15.084]';0.095;0.46
'[09:00:15.088]';-0.01;0.44
'[09:00:15.092]';0.015;0.41
'[09:00:15.096]';0;0.38
'[09:00:15.100]';-0.08;0.365
'[09:00:15.104]';-0.115;0.345
'[09:00:15.108]';-0.02;0.375
'[09:00:15.112]';0.055;0.42
'[09:00:15.116]';0.095;0.44
'[09:00:15.120]';0.015;0.425
'[09:00:15.124]';-0.155;0.375
'[09:00:15.128]';-0.205;0.36
'[09:00:15.132]';-0.08;0.38
'[09:00:15.136]';0.06;0.375
'[09:00:15.140]';0.075;0.355
'[09:00:15.144]';-0.015;0.34
'[09:00:15.148]';-0.045;0.345
'[09:00:15.152]';-0.005;0.38
'[09:00:15.156]';0.05;0.375
'[09:00:15.160]';-0.015;0.35
'[09:00:15.164]';-0.06;0.335
'[09:00:15.168]';-0.045;0.35
'[09:00:15.172]';-0.005;0.36
'[09:00:15.176]';0.025;0.355
'[09:00:15.180]';0.08;0.365
'[09:00:15.184]';0.11;0.365
'[09:00:15.188]';0.075;0.365
'[09:00:15.192]';0.01;0.385
'[09:00:15.196]';-0.03;0.395
'[09:00:15.200]';-0.025;0.385
'[09:00:15.204]';-0.015;0.39
'[09:00:15.208]';0;0.385
'[09:00:15.212]';0.005;0.395
'[09:00:15.216]';0.005;0.385
'[09:00:15.220]';0.005;0.39
'[09:00:15.224]';0.015;0.405
'[09:00:15.228]';0.015;0.42
'[09:00:15.232]';0.025;0.41
'[09:00:15.236]';0.02;0.41
'[09:00:15.240]';0.025;0.415
'[09:00:15.244]';0.005;0.415
'[09:00:15.248]';-0.02;0.415
'[09:00:15.252]';0.005;0.425
'[09:00:15.256]';0.02;0.44
'[09:00:15.260]';0.015;0.43
'[09:00:15.264]';0;0.445
'[09:00:15.268]';0.01;0.44
'[09:00:15.272]';0.015;0.43
'[09:00:15.276]';0.035;0.44
'[09:00:15.280]';0.07;0.425
'[09:00:15.284]';0.12;0.445
'[09:00:15.288]';0.105;0.44
'[09:00:15.292]';0.1;0.445
'[09:00:15.296]';0.12;0.455
'[09:00:15.300]';0.15;0.45
'[09:00:15.304]';0.065;0.43
'[09:00:15.308]';-0.035;0.425
'[09:00:15.312]';-0.05;0.44
'[09:00:15.316]';-0.03;0.44
'[09:00:15.320]';0.07;0.445
'[09:00:15.324]';0.185;0.45
'[09:00:15.328]';0.105;0.425
'[09:00:15.332]';-0.09;0.405
'[09:00:15.336]';-0.15;0.41
'[09:00:15.340]';-0.07;0.435
'[09:00:15.344]';-0.005;0.435
'[09:00:15.348]';0.01;0.435
'[09:00:15.352]';0.005;0.425
'[09:00:15.356]';0.02;0.41
'[09:00:15.360]';0.055;0.405
'[09:00:15.364]';0.09;0.41
'[09:00:15.368]';0.125;0.42
'[09:00:15.372]';0.035;0.415
'[09:00:15.376]';-0.025;0.42
'[09:00:15.380]';-0.02;0.425
'[09:00:15.384]';0;0.425
'[09:00:15.388]';0.03;0.425
'[09:00:15.392]';0.1;0.435
'[09:00:15.396]';0.155;0.44
'[09:00:15.400]';0.09;0.435
'[09:00:15.404]';-0.01;0.435
'[09:00:15.408]';-0.01;0.45
'[09:00:15.412]';0.075;0.45
'[09:00:15.416]';0.09;0.47
'[09:00:15.420]';0.025;0.465
'[09:00:15.424]';0;0.445
'[09:00:15.428]';0.01;0.445
'[09:00:15.432]';0.025;0.47
'[09:00:15.436]';0.045;0.5
'[09:00:15.440]';0.06;0.545
'[09:00:15.444]';0.05;0.565
'[09:00:15.448]';0.04;0.55
'[09:00:15.452]';0.05;0.535
'[09:00:15.456]';0.07;0.515
'[09:00:15.460]';0.065;0.5
'[09:00:15.464]';0.035;0.505
'[09:00:15.468]';-0.08;0.54
'[09:00:15.472]';-0.24;0.535
'[09:00:15.476]';-0.315;0.545
'[09:00:15.480]';-0.31;0.545
'[09:00:15.484]';-0.27;0.525
'[09:00:15.488]';-0.255;0.49
'[09:00:15.492]';-0.2;0.465
'[09:00:15.496]';-0.15;0.435
'[09:00:15.500]';-0.055;0.425
'[09:00:15.504]';0.06;0.42
'[09:00:15.508]';0.145;0.41
'[09:00:15.512]';0.155;0.4
'[09:00:15.516]';0.085;0.4
'[09:00:15.520]';0.03;0.405
'[09:00:15.524]';0.04;0.405
'[09:00:15.528]';0.065;0.38
'[09:00:15.532]';0.08;0.375
'[09:00:15.536]';0.035;0.37
'[09:00:15.540]';-0.01;0.37
'[09:00:15.544]';0;0.375
'[09:00:15.548]';0.025;0.385
'[09:00:15.552]';0.01;0.375
'[09:00:15.556]';0.005;0.365
'[09:00:15.560]';0.035;0.345
'[09:00:15.564]';0.06;0.345
'[09:00:15.568]';0.08;0.355
'[09:00:15.572]';0.09;0.36
'[09:00:15.576]';0.085;0.375
'[09:00:15.580]';0.08;0.38
'[09:00:15.584]';0.09;0.395
'[09:00:15.588]';0.085;0.385
'[09:00:15.592]';0.07;0.39
'[09:00:15.596]';0.075;0.375
'[09:00:15.600]';0.07;0.38
'[09:00:15.604]';0.075;0.375
'[09:00:15.608]';0.075;0.39
'[09:00:15.612]';0.07;0.405
'[09:00:15.616]';0.095;0.395
'[09:00:15.620]';0.095;0.4
'[09:00:15.624]';0.07;0.385
'[09:00:15.628]';0.06;0.39
'[09:00:15.632]';0.065;0.39
'[09:00:15.636]';0.095;0.37
'[09:00:15.640]';0.135;0.37
'[09:00:15.644]';0.075;0.38
'[09:00:15.648]';0.04;0.385
'[09:00:15.652]';0.055;0.375
'[09:00:15.656]';0.06;0.355
'[09:00:15.660]';0.1;0.34
'[09:00:15.664]';0.15;0.325
'[09:00:15.668]';0.135;0.335
'[09:00:15.672]';0.04;0.355
'[09:00:15.676]';0.01;0.355
'[09:00:15.680]';0.02;0.36
'[09:00:15.684]';0.055;0.355
'[09:00:15.688]';0.105;0.35
'[09:00:15.692]';0.115;0.36
'[09:00:15.696]';0.08;0.355
'[09:00:15.700]';0.085;0.355
'[09:00:15.704]';0.11;0.375
'[09:00:15.708]';0.1;0.365
'[09:00:15.712]';0.025;0.375
'[09:00:15.716]';0.005;0.39
'[09:00:15.720]';0.005;0.415
'[09:00:15.724]';0.05;0.415
'[09:00:15.728]';0.04;0.375
'[09:00:15.732]';0.02;0.355
'[09:00:15.736]';0.03;0.345
'[09:00:15.740]';0.055;0.345
'[09:00:15.744]';0.08;0.335
'[09:00:15.748]';0.095;0.35
'[09:00:15.752]';0.085;0.36
'[09:00:15.756]';0.095;0.37
'[09:00:15.760]';0.095;0.365
'[09:00:15.764]';0.07;0.36
'[09:00:15.768]';0.08;0.36
'[09:00:15.772]';0.08;0.36
'[09:00:15.776]';0.09;0.36
'[09:00:15.780]';0.11;0.36
'[09:00:15.784]';0.115;0.35
'[09:00:15.788]';0.08;0.355
'[09:00:15.792]';0.045;0.335
'[09:00:15.796]';0.05;0.34
'[09:00:15.800]';0.09;0.36
'[09:00:15.804]';0.115;0.36
'[09:00:15.808]';0.12;0.37
'[09:00:15.812]';0.12;0.385
'[09:00:15.816]';0.095;0.375
'[09:00:15.820]';0.105;0.35
'[09:00:15.824]';0.11;0.315
'[09:00:15.828]';0.09;0.305
'[09:00:15.832]';0.055;0.31
'[09:00:15.836]';0.07;0.31
'[09:00:15.840]';0.11;0.33
'[09:00:15.844]';0.15;0.32
'[09:00:15.848]';0.195;0.33
'[09:00:15.852]';0.19;0.34
'[09:00:15.856]';0.085;0.33
'[09:00:15.860]';0.025;0.34
'[09:00:15.864]';-0.025;0.34
'[09:00:15.868]';-0.03;0.33
'[09:00:15.872]';-0.005;0.32
'[09:00:15.876]';0.04;0.325
'[09:00:15.880]';0.045;0.335
'[09:00:15.884]';0.055;0.325
'[09:00:15.888]';0.055;0.33
'[09:00:15.892]';0.06;0.33
'[09:00:15.896]';0.055;0.325
'[09:00:15.900]';0.06;0.315
'[09:00:15.904]';0.07;0.315
'[09:00:15.908]';0.095;0.325
'[09:00:15.912]';0.115;0.35
'[09:00:15.916]';0.17;0.345
'[09:00:15.920]';0.14;0.335
'[09:00:15.924]';0.055;0.31
'[09:00:15.928]';-0.035;0.295
'[09:00:15.932]';-0.03;0.3
'[09:00:15.936]';0.02;0.31
'[09:00:15.940]';0.06;0.305
'[09:00:15.944]';0.06;0.325
'[09:00:15.948]';0.06;0.295
'[09:00:15.952]';0.06;0.285
'[09:00:15.956]';0.045;0.3
'[09:00:15.960]';0.065;0.315
'[09:00:15.964]';0.055;0.315
'[09:00:15.968]';0.06;0.34
'[09:00:15.972]';0.05;0.375
'[09:00:15.976]';0.04;0.39
'[09:00:15.980]';0.01;0.39
'[09:00:15.984]';0.01;0.37
'[09:00:15.988]';0.045;0.35
'[09:00:15.992]';0.085;0.355
'[09:00:15.996]';0.095;0.395
'[09:00:16.000]';0.075;0.4
'[09:00:16.004]';0.015;0.4
'[09:00:16.008]';-0.17;0.405
'[09:00:16.012]';-0.335;0.385
'[09:00:16.016]';-0.355;0.41
'[09:00:16.020]';-0.32;0.39
'[09:00:16.024]';-0.27;0.34
'[09:00:16.028]';-0.145;0.3
'[09:00:16.032]';-0.085;0.27
'[09:00:16.036]';-0.04;0.275
'[09:00:16.040]';-0.015;0.27
'[09:00:16.044]';-0.005;0.275
'[09:00:16.048]';-0.015;0.26
'[09:00:16.052]';0;0.235
'[09:00:16.056]';0.055;0.235
'[09:00:16.060]';0.135;0.23
'[09:00:16.064]';0.135;0.23
'[09:00:16.068]';0.08;0.215
'[09:00:16.072]';0.035;0.215
'[09:00:16.076]';0.01;0.21
'[09:00:16.080]';0;0.205
'[09:00:16.084]';0.04;0.2
'[09:00:16.088]';0.045;0.19
'[09:00:16.092]';0.02;0.18
'[09:00:16.096]';0.01;0.18
'[09:00:16.100]';0;0.185
'[09:00:16.104]';0.025;0.18
'[09:00:16.108]';0.035;0.19
'[09:00:16.112]';0.035;0.185
'[09:00:16.116]';0.04;0.19
'[09:00:16.120]';0.045;0.18
'[09:00:16.124]';0.075;0.185
'[09:00:16.128]';0.075;0.17
'[09:00:16.132]';0.12;0.175
'[09:00:16.136]';0.185;0.18
'[09:00:16.140]';0.135;0.18
'[09:00:16.144]';0;0.185
'[09:00:16.148]';-0.105;0.185
'[09:00:16.152]';-0.08;0.19
'[09:00:16.156]';-0.06;0.195
'[09:00:16.160]';-0.045;0.195
'[09:00:16.164]';0;0.165
'[09:00:16.168]';-0.01;0.155
'[09:00:16.172]';-0.025;0.135
'[09:00:16.176]';-0.01;0.14
'[09:00:16.180]';0.015;0.145
'[09:00:16.184]';0.02;0.155
'[09:00:16.188]';0.005;0.16
'[09:00:16.192]';0.02;0.155
'[09:00:16.196]';0;0.15
'[09:00:16.200]';0.01;0.15
'[09:00:16.204]';0.03;0.145
'[09:00:16.208]';0.04;0.145
'[09:00:16.212]';0.02;0.15
'[09:00:16.216]';0.02;0.14
'[09:00:16.220]';0.065;0.145
'[09:00:16.224]';0.09;0.17
'[09:00:16.228]';0.035;0.17
'[09:00:16.232]';0;0.165
'[09:00:16.236]';0.11;0.155
'[09:00:16.240]';0.125;0.16
'[09:00:16.244]';0.115;0.16
'[09:00:16.248]';0.075;0.185
'[09:00:16.252]';-0.025;0.18
'[09:00:16.256]';-0.2;0.185
'[09:00:16.260]';-0.275;0.14
'[09:00:16.264]';-0.195;0.115
'[09:00:16.268]';-0.08;0.115
'[09:00:16.272]';-0.01;0.12
'[09:00:16.276]';0;0.125
'[09:00:16.280]';-0.035;0.14
'[09:00:16.284]';-0.06;0.145
'[09:00:16.288]';-0.065;0.145
'[09:00:16.292]';-0.03;0.15
'[09:00:16.296]';-0.05;0.175
'[09:00:16.300]';-0.075;0.155
'[09:00:16.304]';-0.07;0.175
'[09:00:16.308]';-0.065;0.205
'[09:00:16.312]';-0.07;0.215
'[09:00:16.316]';-0.075;0.17
'[09:00:16.320]';-0.06;0.11
'[09:00:16.324]';-0.065;0.075
'[09:00:16.328]';-0.05;0.075
'[09:00:16.332]';-0.02;0.085
'[09:00:16.336]';-0.02;0.12
'[09:00:16.340]';-0.02;0.1
'[09:00:16.344]';-0.02;0.1
'[09:00:16.348]';-0.035;0.095
'[09:00:16.352]';-0.045;0.075
'[09:00:16.356]';-0.02;0.07
'[09:00:16.360]';-0.015;0.075
'[09:00:16.364]';0.025;0.095
'[09:00:16.368]';0.045;0.095
'[09:00:16.372]';0.025;0.08
'[09:00:16.376]';-0.01;0.09
'[09:00:16.380]';0.01;0.085
'[09:00:16.384]';0.03;0.08
'[09:00:16.388]';0.02;0.09
'[09:00:16.392]';-0.015;0.09
'[09:00:16.396]';-0.01;0.09
'[09:00:16.400]';0.025;0.085
'[09:00:16.404]';-0.03;0.09
'[09:00:16.408]';-0.12;0.075
'[09:00:16.412]';-0.135;0.075
'[09:00:16.416]';-0.09;0.08
'[09:00:16.420]';-0.05;0.075
'[09:00:16.424]';-0.03;0.075
'[09:00:16.428]';-0.035;0.08
'[09:00:16.432]';-0.02;0.075
'[09:00:16.436]';-0.025;0.07
'[09:00:16.440]';-0.03;0.075
'[09:00:16.444]';-0.005;0.08
'[09:00:16.448]';0.03;0.075
'[09:00:16.452]';0.03;0.06
'[09:00:16.456]';0.015;0.08
'[09:00:16.460]';-0.015;0.09
'[09:00:16.464]';-0.04;0.12
'[09:00:16.468]';-0.055;0.145
'[09:00:16.472]';-0.02;0.13
'[09:00:16.476]';-0.015;0.08
'[09:00:16.480]';0.01;0.03
'[09:00:16.484]';-0.01;0.04
'[09:00:16.488]';-0.1;0.06
'[09:00:16.492]';-0.17;0.045
'[09:00:16.496]';-0.17;0.03
'[09:00:16.500]';-0.125;0.02
'[09:00:16.504]';-0.08;0.015
'[09:00:16.508]';-0.055;0.055
'[09:00:16.512]';-0.05;0.085
'[09:00:16.516]';-0.04;0.11
'[09:00:16.520]';-0.06;0.1
'[09:00:16.524]';-0.035;0.085
'[09:00:16.528]';0.005;0.095
'[09:00:16.532]';0.03;0.115
'[09:00:16.536]';0.025;0.135
'[09:00:16.540]';-0.015;0.15
'[09:00:16.544]';-0.175;0.145
'[09:00:16.548]';-0.29;0.15
'[09:00:16.552]';-0.35;0.16
'[09:00:16.556]';-0.335;0.155
'[09:00:16.560]';-0.315;0.135
'[09:00:16.564]';-0.23;0.1
'[09:00:16.568]';-0.14;0.06
'[09:00:16.572]';-0.1;0.01
'[09:00:16.576]';-0.105;0
'[09:00:16.580]';-0.14;-0.02
'[09:00:16.584]';-0.145;-0.03
'[09:00:16.588]';-0.1;-0.04
'[09:00:16.592]';-0.07;-0.04
'[09:00:16.596]';-0.03;-0.015
'[09:00:16.600]';-0.03;0
'[09:00:16.604]';0.005;-0.015
'[09:00:16.608]';0.025;-0.005
'[09:00:16.612]';0;0
'[09:00:16.616]';-0.045;0
'[09:00:16.620]';0.015;-0.025
'[09:00:16.624]';0.1;-0.03
'[09:00:16.628]';0.06;-0.04
'[09:00:16.632]';-0.09;-0.04
'[09:00:16.636]';-0.175;-0.045
'[09:00:16.640]';-0.135;-0.03
'[09:00:16.644]';-0.09;-0.025
