Time;Ecg1;Ecg2
11:38:58.351;2432919.0;2442628.0
11:38:58.391;3406140.0;3419802.0
11:38:58.431;3675275.0;3691101.0
11:38:58.471;3610858.0;3626023.0
11:38:58.511;3401747.0;3415120.0
11:38:58.551;3137219.0;3149552.0
11:38:58.591;2861497.0;2872778.0
11:38:58.631;2594462.0;2604636.0
11:38:58.671;2344803.0;2354277.0
11:38:58.711;2115373.0;2123916.0
11:38:58.751;1905950.0;1913642.0
11:38:58.791;1716203.0;1723397.0
11:38:58.831;1544974.0;1551655.0
11:38:58.871;1390651.0;1396783.0
11:38:58.911;1251801.0;1257175.0
11:38:58.951;1126525.0;1131680.0
11:38:58.991;1013987.0;1018482.0
11:38:59.031;912604.0;916471.0
11:38:59.071;821430.0;824916.0
11:38:59.111;739177.0;742546.0
11:38:59.151;665245.0;668289.0
11:38:59.191;600295.0;604187.0
11:38:59.231;539407.0;542350.0
11:38:59.271;484799.0;487387.0
11:38:59.311;436316.0;438230.0
11:38:59.351;392847.0;394361.0
11:38:59.391;353696.0;355060.0
11:38:59.431;318571.0;320030.0
11:38:59.471;287015.0;288414.0
11:38:59.511;258179.0;259387.0
11:38:59.551;231939.0;233210.0
11:38:59.591;208452.0;209881.0
11:38:59.631;188733.0;191612.0
11:38:59.671;169251.0;170904.0
11:38:59.711;151846.0;153276.0
11:38:59.751;136562.0;137466.0
11:38:59.791;123114.0;123419.0
11:38:59.831;111055.0;111360.0
11:38:59.871;100199.0;100595.0
11:38:59.911;90437.0;90570.0
11:38:59.951;81146.0;81453.0
11:38:59.991;72673.0;73046.0
11:39:00.031;65306.0;65639.0
11:39:00.071;58923.0;58932.0
11:39:00.111;53008.0;53108.0
11:39:00.151;47556.0;47718.0
11:39:00.191;42759.0;42695.0
11:39:00.231;39229.0;41075.0
11:39:00.271;34871.0;35455.0
11:39:00.311;30840.0;31301.0
11:39:00.351;27836.0;27793.0
11:39:00.391;25410.0;25185.0
11:39:00.431;23146.0;22771.0
11:39:00.471;21242.0;20936.0
11:39:00.511;19085.0;18770.0
11:39:00.551;16997.0;16831.0
11:39:00.591;14945.0;15000.0
11:39:00.631;13150.0;13374.0
11:39:00.671;11762.0;11878.0
11:39:00.711;10596.0;10895.0
11:39:00.751;9552.0;9801.0
11:39:00.791;8484.0;8782.0
11:39:00.831;7591.0;7861.0
11:39:00.871;6834.0;7270.0
11:39:00.911;6189.0;6483.0
11:39:00.951;5897.0;5613.0
11:39:00.991;4111.0;5798.0
11:39:01.031;3834.0;4182.0
11:39:01.071;3766.0;3987.0
11:39:01.111;3616.0;3511.0
11:39:01.151;3417.0;3371.0
11:39:01.191;3401.0;3376.0
11:39:01.231;3590.0;3532.0
11:39:01.271;3232.0;2997.0
11:39:01.311;2448.0;2648.0
11:39:01.351;1841.0;2275.0
11:39:01.391;1528.0;1988.0
11:39:01.431;1234.0;1662.0
11:39:01.471;1230.0;1247.0
11:39:01.511;439.0;2582.0
11:39:01.551;339.0;924.0
11:39:01.591;628.0;856.0
11:39:01.631;691.0;764.0
11:39:01.671;905.0;892.0
11:39:01.711;1090.0;1064.0
11:39:01.751;1385.0;1480.0
11:39:01.791;1417.0;1380.0
11:39:01.831;830.0;1094.0
11:39:01.871;387.0;767.0
11:39:01.911;251.0;661.0
11:39:01.951;342.0;753.0
11:39:01.991;246.0;681.0
11:39:02.031;73.0;547.0
11:39:02.071;40.0;419.0
11:39:02.111;-118.0;118.0
11:39:02.151;781.0;1371.0
11:39:02.191;-172.0;1323.0
11:39:02.231;-256.0;-667.0
11:39:02.271;-168.0;-437.0
11:39:02.311;3.0;79.0
11:39:21.789;204.0;427.0
11:39:21.829;175.0;788.0
11:39:21.869;38.0;528.0
11:39:21.909;-99.0;164.0
11:39:21.949;-105.0;498.0
11:39:21.989;-39.0;440.0
11:39:22.029;51.0;184.0
11:39:22.069;18.0;148.0
11:39:22.109;89.0;209.0
11:39:22.149;157.0;357.0
11:39:22.189;154.0;533.0
11:39:22.229;1457.0;2791.0
11:39:22.269;592.0;1545.0
11:39:22.309;272.0;20.0
11:39:22.349;26.0;-9.0
11:39:22.389;133.0;-40.0
11:39:22.429;338.0;229.0
11:39:22.469;605.0;967.0
11:39:22.509;791.0;959.0
11:39:22.549;527.0;611.0
11:39:22.589;70.0;659.0
11:39:22.629;-232.0;365.0
11:39:22.669;-389.0;-76.0
11:39:22.709;-231.0;51.0
11:39:22.749;-284.0;230.0
11:39:22.789;-276.0;294.0
11:39:22.829;-218.0;-32.0
11:39:22.869;-308.0;-176.0
11:39:22.909;-256.0;-95.0
11:39:22.949;-249.0;-148.0
11:39:22.989;905.0;60.0
11:39:23.029;1771.0;1826.0
11:39:23.069;133.0;4563.0
11:39:23.109;-226.0;3224.0
11:39:23.149;-355.0;496.0
11:39:23.189;-309.0;-848.0
11:39:23.229;-319.0;-1836.0
11:39:23.269;-259.0;-2513.0
11:39:23.309;25.0;-2456.0
11:39:23.349;308.0;-1045.0
11:39:23.389;24.0;-312.0
11:39:23.429;-242.0;-272.0
11:39:23.469;-201.0;-9.0
11:39:23.509;-274.0;93.0
11:39:23.549;-304.0;-45.0
11:39:23.589;-448.0;-283.0
11:39:23.629;-359.0;-18.0
11:39:23.669;-274.0;71.0
11:39:23.709;-171.0;271.0
11:39:23.749;-388.0;19.0
11:39:23.789;-303.0;22.0
11:39:23.829;-245.0;88.0
11:39:23.869;990.0;2393.0
11:39:23.909;82.0;961.0
11:39:23.949;-223.0;-460.0
11:39:23.989;-147.0;-378.0
11:39:24.029;-124.0;-321.0
11:39:24.069;30.0;-224.0
11:39:24.109;423.0;52.0
11:39:24.149;733.0;241.0
11:39:24.189;451.0;116.0
11:39:24.229;73.0;236.0
11:39:24.269;-302.0;190.0
11:39:24.309;-454.0;-158.0
11:39:24.349;-553.0;-49.0
11:39:24.389;-572.0;11.0
11:39:24.429;-508.0;-421.0
11:39:24.469;418.0;1215.0
11:39:24.509;-199.0;624.0
11:39:24.549;208.0;-416.0
11:39:24.589;-155.0;-504.0
11:39:24.629;-259.0;-272.0
11:39:24.669;-293.0;-94.0
11:39:24.709;-33.0;180.0
11:39:24.749;368.0;503.0
11:39:24.789;76.0;366.0
11:39:24.829;-342.0;185.0
11:39:24.869;-579.0;-181.0
11:39:24.909;-488.0;-236.0
11:39:24.949;608.0;2374.0
11:39:24.989;-160.0;854.0
11:39:25.029;-747.0;-53.0
11:39:25.069;-516.0;-221.0
11:39:25.109;-388.0;-273.0
11:39:25.149;-146.0;-344.0
11:39:25.189;195.0;-72.0
11:39:25.229;461.0;386.0
11:39:25.269;96.0;239.0
11:39:25.309;-172.0;-118.0
11:39:25.349;-400.0;-329.0
11:39:25.389;-297.0;-52.0
11:39:25.429;-245.0;-34.0
11:39:25.469;-508.0;-261.0
11:39:25.509;-581.0;-355.0
11:39:25.549;-469.0;-176.0
11:39:25.589;-542.0;-314.0
11:39:25.629;89.0;419.0
11:39:25.669;-1215.0;787.0
11:39:25.709;-1034.0;-1114.0
11:39:25.749;-649.0;-767.0
11:39:22.449;-478.0;-438.0
11:39:22.489;-44.0;-70.0
11:39:22.529;-182.0;101.0
11:39:22.569;-306.0;294.0
11:39:22.609;-400.0;150.0
11:39:22.649;-418.0;0.0
11:39:22.689;-311.0;-148.0
11:39:22.729;986.0;2578.0
11:39:22.769;89.0;553.0
11:39:22.809;-537.0;183.0
11:39:22.849;-377.0;-177.0
11:39:22.889;-226.0;-186.0
11:39:22.929;-44.0;75.0
11:39:22.969;367.0;471.0
11:39:23.009;451.0;252.0
11:39:23.049;174.0;209.0
11:39:23.089;-243.0;84.0
11:39:23.129;-500.0;-219.0
11:39:23.169;-615.0;-371.0
11:39:23.209;-456.0;-137.0
11:39:23.249;-479.0;-86.0
11:39:23.289;-227.0;-350.0
11:39:23.329;-1119.0;609.0
11:39:23.369;-811.0;-305.0
11:39:23.409;-696.0;-204.0
11:39:23.449;-472.0;-395.0
11:39:23.489;-211.0;-298.0
11:39:23.529;197.0;107.0
11:39:23.569;774.0;587.0
11:39:23.609;716.0;573.0
11:39:23.649;273.0;215.0
11:39:23.689;-53.0;27.0
11:39:23.729;-194.0;82.0
11:39:23.769;-312.0;-102.0
11:39:23.809;457.0;1141.0
11:39:23.849;-311.0;981.0
11:39:23.889;-457.0;-559.0
11:39:23.929;-300.0;-617.0
11:39:23.969;-227.0;-211.0
11:39:24.009;26.0;-97.0
11:39:24.049;523.0;242.0
11:39:24.089;834.0;612.0
11:39:24.129;394.0;433.0
11:39:24.169;4.0;429.0
11:39:24.209;-196.0;188.0
11:39:24.249;-319.0;19.0
11:39:24.289;-219.0;-23.0
11:39:24.329;-130.0;213.0
11:39:24.369;-127.0;-71.0
11:39:24.409;-188.0;-85.0
11:39:24.449;-141.0;144.0
11:39:24.489;-100.0;33.0
11:39:24.529;-175.0;-16.0
11:39:24.569;-159.0;68.0
11:39:24.609;341.0;202.0
11:39:24.649;-723.0;651.0
11:39:24.689;-348.0;-379.0
11:39:24.729;-106.0;-90.0
11:39:24.769;-25.0;-133.0
11:39:24.809;203.0;32.0
11:39:24.849;445.0;528.0
11:39:24.889;819.0;918.0
11:39:24.929;773.0;795.0
11:39:24.969;295.0;656.0
11:39:25.009;82.0;424.0
11:39:25.049;20.0;328.0
11:39:25.089;-90.0;218.0
11:39:25.129;-71.0;260.0
11:39:25.169;12.0;352.0
11:39:25.209;106.0;201.0
11:39:25.249;-9.0;97.0
11:39:25.289;-1.0;142.0
11:39:25.329;0.0;41.0
11:39:25.369;256.0;-322.0
11:39:25.409;276.0;2349.0
11:39:25.449;-94.0;687.0
11:39:25.489;-243.0;177.0
11:39:25.529;83.0;-262.0
11:39:25.569;334.0;21.0
11:39:25.609;641.0;311.0
11:39:25.649;1090.0;850.0
11:39:25.689;1153.0;761.0
11:39:25.729;773.0;657.0
11:39:25.769;342.0;472.0
11:39:25.809;131.0;417.0
11:39:25.849;7.0;191.0
11:39:25.889;55.0;218.0
11:39:25.929;-3.0;207.0
11:39:25.969;-20.0;162.0
11:39:26.009;55.0;372.0
11:39:26.049;124.0;274.0
11:39:26.089;81.0;192.0
11:39:26.129;400.0;229.0
11:39:26.169;-636.0;1242.0
11:39:26.209;-602.0;-338.0
11:39:26.249;-206.0;-287.0
11:39:26.289;175.0;58.0
11:39:26.329;438.0;184.0
11:39:26.369;796.0;468.0
11:39:26.409;1218.0;1143.0
11:39:29.229;1183.0;1093.0
11:39:29.269;499.0;723.0
11:39:29.309;317.0;421.0
11:39:29.349;112.0;445.0
11:39:29.389;-8.0;470.0
11:39:29.429;-53.0;328.0
11:39:29.469;56.0;366.0
11:39:29.509;61.0;302.0
11:39:29.549;22.0;292.0
11:39:29.589;57.0;423.0
11:39:29.629;159.0;311.0
11:39:29.669;62.0;323.0
11:39:29.709;3.0;175.0
11:39:29.749;34.0;238.0
11:39:29.789;369.0;-110.0
11:39:29.829;-101.0;1689.0
11:39:29.869;-149.0;93.0
11:39:29.909;-172.0;21.0
11:39:29.949;117.0;-250.0
11:39:29.989;279.0;-155.0
11:39:30.029;509.0;-22.0
11:39:30.069;1037.0;474.0
11:39:30.109;1172.0;764.0
11:39:30.149;646.0;588.0
11:39:30.189;255.0;398.0
11:39:30.229;18.0;283.0
11:39:30.269;-219.0;76.0
11:39:30.309;-292.0;-15.0
11:39:30.349;68.0;223.0
11:39:30.389;-1098.0;725.0
11:39:30.429;-970.0;-801.0
11:39:30.469;-333.0;-287.0
11:39:30.509;-59.0;-84.0
11:39:30.549;185.0;-71.0
11:39:30.589;454.0;251.0
11:39:30.629;1015.0;869.0
11:39:30.669;1033.0;677.0
11:39:30.709;467.0;355.0
11:39:30.749;10.0;183.0
11:39:30.789;-256.0;7.0
11:39:30.829;-326.0;-213.0
11:39:30.869;-209.0;42.0
11:39:30.909;-174.0;41.0
11:39:30.949;897.0;2527.0
11:39:30.989;828.0;940.0
11:39:31.029;333.0;287.0
11:39:31.069;-17.0;-92.0
11:39:31.109;-258.0;-302.0
11:39:31.149;-198.0;-184.0
11:39:31.189;128.0;90.0
11:39:31.229;96.0;5.0
11:39:31.269;-225.0;11.0
11:39:31.309;-439.0;-53.0
11:39:31.349;-482.0;-101.0
11:39:31.389;-504.0;-269.0
11:39:31.429;-525.0;-62.0
11:39:31.469;-422.0;-102.0
11:39:31.509;-412.0;-192.0
11:39:31.549;-194.0;24.0
11:39:31.589;-229.0;112.0
11:39:31.629;-75.0;-11.0
11:39:31.669;1131.0;720.0
11:39:31.709;618.0;3117.0
11:39:31.749;-776.0;3521.0
11:39:31.789;-478.0;1520.0
11:39:31.829;-594.0;-493.0
11:39:31.869;-489.0;-1680.0
11:39:31.909;-362.0;-2356.0
11:39:31.949;-152.0;-2818.0
11:39:31.989;94.0;-1967.0
11:39:32.029;23.0;-623.0
11:39:32.069;-134.0;180.0
11:39:32.109;-135.0;480.0
11:39:32.149;-244.0;362.0
11:39:32.189;-246.0;521.0
11:39:32.229;-247.0;485.0
11:39:32.269;11.0;397.0
11:39:32.309;1245.0;635.0
11:39:32.349;1030.0;3045.0
11:39:32.389;-497.0;3979.0
11:39:32.429;-125.0;2245.0
11:39:32.469;-207.0;310.0
11:39:32.509;-227.0;-893.0
11:39:32.549;-53.0;-1853.0
11:39:32.589;342.0;-2682.0
11:39:32.629;402.0;-2014.0
11:39:32.669;247.0;-588.0
11:39:32.709;2.0;-75.0
11:39:32.749;-12.0;386.0
11:39:32.789;-78.0;507.0
11:39:32.829;-133.0;414.0
11:39:32.869;-114.0;126.0
11:39:32.909;-96.0;371.0
11:39:32.949;-64.0;470.0
11:39:32.989;-29.0;375.0
11:39:33.029;1262.0;655.0
11:39:33.069;1491.0;2852.0
11:39:33.109;-155.0;4227.0
11:39:33.149;12.0;2641.0
11:39:33.189;-215.0;386.0
11:39:29.683;-196.0;-847.0
11:39:29.723;-56.0;-848.0
11:39:29.763;-110.0;-827.0
11:39:29.803;-167.0;-738.0
11:39:29.843;-151.0;-476.0
11:39:29.883;-125.0;-432.0
11:39:29.923;-64.0;-372.0
11:39:29.963;31.0;-311.0
11:39:30.003;-38.0;-184.0
11:39:30.043;-55.0;-201.0
11:39:30.083;-98.0;-347.0
11:39:30.123;-98.0;-210.0
11:39:30.163;7.0;-163.0
11:39:30.203;-4.0;-258.0
11:39:30.243;170.0;-437.0
11:39:30.283;1430.0;366.0
11:39:30.323;1529.0;3448.0
11:39:30.363;231.0;2059.0
11:39:30.403;-202.0;-135.0
11:39:30.443;-371.0;-1164.0
11:39:30.483;-366.0;-1742.0
11:39:30.523;-335.0;-2290.0
11:39:30.563;-252.0;-2075.0
11:39:30.603;-84.0;-1364.0
11:39:30.643;-142.0;-866.0
11:39:30.683;-171.0;-461.0
11:39:30.723;-171.0;-287.0
11:39:30.763;86.0;-247.0
11:39:30.803;-83.0;-598.0
11:39:30.843;-144.0;-479.0
11:39:30.883;-160.0;-419.0
11:39:30.923;-74.0;-538.0
11:39:30.963;-159.0;-573.0
11:39:31.003;1321.0;2274.0
11:39:31.043;410.0;405.0
11:39:31.083;-289.0;-523.0
11:39:31.123;-252.0;-623.0
11:39:31.163;-93.0;-645.0
11:39:31.203;247.0;-529.0
11:39:31.243;647.0;-11.0
11:39:31.283;848.0;114.0
11:39:31.323;468.0;-216.0
11:39:31.363;137.0;-567.0
11:39:31.403;-88.0;-596.0
11:39:31.443;-222.0;-522.0
11:39:31.483;-275.0;-605.0
11:39:31.523;-97.0;-666.0
11:39:31.563;-120.0;-537.0
11:39:31.603;431.0;249.0
11:39:31.643;-712.0;23.0
11:39:31.683;-438.0;-1540.0
11:39:31.723;-299.0;-978.0
11:39:31.763;-42.0;-506.0
11:39:31.803;3.0;-322.0
11:39:31.843;307.0;94.0
11:39:31.883;695.0;579.0
11:39:31.923;552.0;588.0
11:39:31.963;138.0;325.0
11:39:32.003;-239.0;76.0
11:39:32.043;-384.0;201.0
11:39:32.083;-403.0;-23.0
11:39:32.123;-276.0;-211.0
11:39:32.163;-174.0;6.0
11:39:32.203;-164.0;-53.0
11:39:32.243;-197.0;-196.0
11:39:32.283;-218.0;-74.0
11:39:32.323;-252.0;-89.0
11:39:32.363;-263.0;-209.0
11:39:32.403;-167.0;56.0
11:39:32.443;-176.0;158.0
11:39:32.483;-32.0;187.0
11:39:32.523;788.0;1234.0
11:39:32.563;874.0;1351.0
11:39:32.603;490.0;438.0
11:39:32.643;97.0;-61.0
11:39:32.683;-42.0;-88.0
11:39:32.723;-168.0;-122.0
11:39:32.763;-28.0;35.0
11:39:32.803;337.0;518.0
11:39:32.843;217.0;604.0
11:39:32.883;-60.0;416.0
11:39:32.923;-163.0;472.0
11:39:32.963;-174.0;308.0
11:39:33.003;-265.0;293.0
11:39:33.043;-253.0;469.0
11:39:33.083;-150.0;180.0
11:39:33.123;119.0;-26.0
11:39:33.163;334.0;2109.0
11:39:33.203;271.0;580.0
11:39:33.243;-244.0;195.0
11:39:33.283;-2.0;-48.0
11:39:33.323;260.0;-112.0
11:39:33.363;696.0;309.0
11:39:33.403;980.0;715.0
11:39:33.443;1049.0;657.0
11:39:33.483;762.0;403.0
11:39:33.523;231.0;219.0
11:39:33.563;737.0;1855.0
11:39:33.603;-155.0;788.0
11:39:33.643;-502.0;69.0
11:39:34.728;-347.0;-220.0
11:39:34.768;107.0;-94.0
11:39:34.808;-7.0;-180.0
11:39:34.848;-129.0;-42.0
11:39:34.888;-241.0;-59.0
11:39:34.928;-357.0;-303.0
11:39:34.968;-245.0;-120.0
11:39:35.008;-363.0;-92.0
11:39:35.048;-237.0;-104.0
11:39:35.088;995.0;478.0
11:39:35.128;864.0;3141.0
11:39:35.168;-507.0;4334.0
11:39:35.208;-565.0;1435.0
11:39:35.248;-643.0;-774.0
11:39:35.288;-505.0;-1980.0
11:39:35.328;-347.0;-2656.0
11:39:35.368;-115.0;-3068.0
11:39:35.408;145.0;-2165.0
11:39:35.448;82.0;-763.0
11:39:35.488;-60.0;-120.0
11:39:35.528;-197.0;28.0
11:39:35.568;-178.0;253.0
11:39:35.608;-40.0;318.0
11:39:35.648;578.0;479.0
11:39:35.688;1586.0;1737.0
11:39:35.728;181.0;4258.0
11:39:35.768;-861.0;3813.0
11:39:35.808;-629.0;1174.0
11:39:35.848;-511.0;-489.0
11:39:35.888;-303.0;-1522.0
11:39:35.928;-35.0;-2527.0
11:39:35.968;286.0;-2627.0
11:39:36.008;404.0;-1363.0
11:39:36.048;50.0;-494.0
11:39:36.088;-4.0;-176.0
11:39:36.128;-86.0;-642.0
11:39:36.168;-127.0;-1041.0
11:39:36.208;-277.0;-1200.0
11:39:36.248;-193.0;-1348.0
11:39:36.288;-109.0;-1361.0
11:39:36.328;-189.0;-1262.0
11:39:36.368;-166.0;-1045.0
11:39:36.408;-156.0;-953.0
11:39:36.448;-37.0;-921.0
11:39:36.488;1077.0;-283.0
11:39:36.528;1101.0;1758.0
11:39:36.568;-493.0;3218.0
11:39:36.608;-233.0;2023.0
11:39:36.648;-394.0;-271.0
11:39:36.688;-227.0;-1601.0
11:39:36.728;-96.0;-2564.0
11:39:36.768;-10.0;-3286.0
11:39:36.808;94.0;-3006.0
11:39:36.848;-9.0;-1344.0
11:39:36.888;-240.0;-427.0
11:39:36.928;-332.0;48.0
11:39:36.968;-354.0;256.0
11:39:37.008;-468.0;108.0
11:39:37.048;-541.0;45.0
11:39:37.088;-555.0;261.0
11:39:37.128;-555.0;242.0
11:39:37.168;-439.0;174.0
11:39:37.208;-369.0;22.0
11:39:37.248;-141.0;22.0
11:39:37.288;653.0;2228.0
11:39:37.328;229.0;601.0
11:39:37.368;-294.0;-116.0
11:39:37.408;-67.0;-394.0
11:39:37.448;233.0;-188.0
11:39:37.488;469.0;56.0
11:39:37.528;894.0;551.0
11:39:37.568;1106.0;647.0
11:39:37.608;559.0;367.0
11:39:37.648;130.0;-12.0
11:39:37.688;-3.0;-202.0
11:39:37.728;-43.0;-206.0
11:39:37.768;510.0;873.0
11:39:37.808;-314.0;605.0
11:39:37.848;-649.0;-520.0
11:39:37.888;-421.0;-538.0
11:39:37.928;-150.0;-273.0
11:39:37.968;77.0;-269.0
11:39:38.008;438.0;-56.0
11:39:38.048;823.0;333.0
11:39:38.088;533.0;362.0
11:39:38.128;90.0;96.0
11:39:38.168;-119.0;-73.0
11:39:38.208;-331.0;115.0
11:39:38.248;-241.0;180.0
11:39:38.288;-146.0;171.0
11:39:38.328;-281.0;136.0
11:39:38.368;-291.0;63.0
11:39:38.408;-117.0;368.0
11:39:38.448;-87.0;216.0
11:39:38.488;-333.0;13.0
11:39:38.528;-209.0;270.0
11:39:38.568;-83.0;431.0
11:39:38.608;696.0;700.0
11:39:38.648;1648.0;2040.0
11:39:38.688;688.0;5202.0
11:39:35.105;-212.0;2904.0
11:39:35.145;-173.0;-30.0
11:39:35.185;-360.0;-1587.0
11:39:35.225;-286.0;-1624.0
11:39:35.265;-156.0;-640.0
11:39:35.305;-235.0;-288.0
11:39:35.345;-181.0;38.0
11:39:35.385;-136.0;173.0
11:39:35.425;34.0;250.0
11:39:35.465;-83.0;299.0
11:39:35.505;-115.0;177.0
11:39:35.545;-24.0;377.0
11:39:35.585;-101.0;450.0
11:39:35.625;-127.0;408.0
11:39:35.665;-37.0;320.0
11:39:35.705;125.0;257.0
11:39:35.745;70.0;280.0
11:39:35.785;151.0;423.0
11:39:35.825;1386.0;2530.0
11:39:35.865;884.0;1323.0
11:39:35.905;1143.0;326.0
11:39:35.945;487.0;-47.0
11:39:35.985;166.0;-240.0
11:39:36.025;362.0;162.0
11:39:36.065;569.0;557.0
11:39:36.105;753.0;753.0
11:39:36.145;321.0;475.0
11:39:36.185;93.0;513.0
11:39:36.225;-146.0;318.0
11:39:36.265;-236.0;141.0
11:39:36.305;-406.0;28.0
11:39:36.345;-288.0;415.0
11:39:36.385;-276.0;306.0
11:39:36.425;-358.0;211.0
11:39:36.465;-383.0;89.0
11:39:36.505;-368.0;182.0
11:39:36.545;-270.0;147.0
11:39:36.585;-399.0;8.0
11:39:36.625;-533.0;-233.0
11:39:36.665;-427.0;-10.0
11:39:36.705;-309.0;260.0
11:39:36.745;-201.0;194.0
11:39:36.785;-125.0;162.0
11:39:36.825;611.0;448.0
11:39:36.865;631.0;1708.0
11:39:36.905;356.0;893.0
11:39:36.945;54.0;96.0
11:39:36.985;-146.0;-268.0
11:39:37.025;-202.0;-555.0
11:39:37.065;-12.0;-349.0
11:39:37.105;312.0;173.0
11:39:37.145;230.0;298.0
11:39:37.185;218.0;471.0
11:39:37.225;142.0;355.0
11:39:37.265;-5.0;291.0
11:39:37.305;-55.0;112.0
11:39:37.345;57.0;156.0
11:39:37.385;54.0;126.0
11:39:37.425;40.0;-75.0
11:39:37.465;97.0;86.0
11:39:37.505;677.0;251.0
11:39:37.545;2023.0;1269.0
11:39:37.585;1151.0;3664.0
11:39:37.625;-278.0;3496.0
11:39:37.665;-251.0;1208.0
11:39:37.705;-264.0;-544.0
11:39:37.745;-264.0;-1961.0
11:39:37.785;-77.0;-2926.0
11:39:37.825;170.0;-2982.0
11:39:37.865;424.0;-2375.0
11:39:37.905;411.0;-1398.0
11:39:37.945;238.0;-593.0
11:39:37.985;191.0;-582.0
11:39:38.025;303.0;-473.0
11:39:38.065;450.0;-190.0
11:39:38.105;409.0;-183.0
11:39:38.145;520.0;-245.0
11:39:38.185;1636.0;114.0
11:39:38.225;1152.0;2194.0
11:39:38.265;-273.0;3152.0
11:39:38.305;46.0;1286.0
11:39:38.345;58.0;-820.0
11:39:38.385;28.0;-1808.0
11:39:38.425;52.0;-2723.0
11:39:38.465;182.0;-3133.0
11:39:38.505;495.0;-2604.0
11:39:38.545;434.0;-1371.0
11:39:38.585;260.0;-761.0
11:39:38.625;56.0;-673.0
11:39:38.665;-4.0;-632.0
11:39:38.705;-104.0;-691.0
11:39:38.745;-175.0;-804.0
11:39:38.785;-1.0;-786.0
11:39:38.825;-96.0;-681.0
11:39:38.865;-164.0;-763.0
11:39:38.905;-78.0;-573.0
11:39:38.945;501.0;-399.0
11:39:38.985;140.0;205.0
11:39:39.025;621.0;-339.0
11:39:39.065;102.0;-886.0
11:39:37.800;-235.0;-1265.0
11:39:37.840;-173.0;-821.0
11:39:37.880;-9.0;-538.0
11:39:37.920;-80.0;-669.0
11:39:37.960;-19.0;-547.0
11:39:38.000;-17.0;-250.0
11:39:38.040;76.0;-259.0
11:39:38.080;100.0;-211.0
11:39:38.120;455.0;-125.0
11:39:38.160;-762.0;709.0
11:39:38.200;-609.0;-860.0
11:39:38.240;-134.0;-590.0
11:39:38.280;301.0;-443.0
11:39:38.320;484.0;-497.0
11:39:38.360;850.0;94.0
11:39:38.400;1361.0;759.0
11:39:38.440;1424.0;694.0
11:39:38.480;847.0;407.0
11:39:38.520;565.0;343.0
11:39:38.560;652.0;235.0
11:39:38.600;-976.0;245.0
11:39:38.640;-420.0;-513.0
11:39:38.680;81.0;-121.0
11:39:38.720;270.0;-127.0
11:39:38.760;260.0;52.0
11:39:38.800;538.0;420.0
11:39:38.840;1045.0;782.0
11:39:38.880;931.0;1051.0
11:39:38.920;436.0;643.0
11:39:38.960;98.0;287.0
11:39:39.000;61.0;463.0
11:39:39.040;-138.0;496.0
11:39:39.080;-149.0;156.0
11:39:39.120;-24.0;342.0
11:39:39.160;734.0;1707.0
11:39:39.200;-441.0;1202.0
11:39:39.240;-326.0;-786.0
11:39:39.280;-246.0;-139.0
11:39:39.320;-159.0;305.0
11:39:39.360;51.0;507.0
11:39:39.400;392.0;1003.0
11:39:39.440;726.0;1321.0
11:39:39.480;425.0;1025.0
11:39:39.520;165.0;988.0
11:39:39.560;-183.0;678.0
11:39:39.600;-410.0;596.0
11:39:39.640;-325.0;645.0
11:39:39.680;-250.0;572.0
11:39:39.720;-353.0;551.0
11:39:39.760;-393.0;532.0
11:39:39.800;-409.0;515.0
11:39:39.840;-377.0;502.0
11:39:39.880;-307.0;446.0
11:39:39.920;-216.0;396.0
11:39:39.960;-209.0;644.0
11:39:40.000;-72.0;412.0
11:39:40.040;35.0;2337.0
11:39:40.080;-143.0;640.0
11:39:40.120;-387.0;456.0
11:39:40.160;-134.0;134.0
11:39:40.200;102.0;12.0
11:39:40.240;245.0;265.0
11:39:40.280;701.0;952.0
11:39:40.320;833.0;993.0
11:39:40.360;532.0;576.0
11:39:40.400;214.0;683.0
11:39:40.440;4.0;492.0
11:39:40.480;-176.0;27.0
11:39:40.520;-256.0;-55.0
11:39:40.560;-227.0;-151.0
11:39:40.600;-253.0;79.0
11:39:40.640;62.0;-185.0
11:39:40.680;-205.0;1891.0
11:39:40.720;-104.0;543.0
11:39:40.760;-363.0;-79.0
11:39:40.800;90.0;-291.0
11:39:40.840;277.0;-128.0
11:39:40.880;480.0;-12.0
11:39:40.920;1156.0;547.0
11:39:40.960;1397.0;566.0
11:39:41.000;950.0;327.0
11:39:41.040;533.0;-167.0
11:39:41.080;283.0;-483.0
11:39:41.120;168.0;-522.0
11:39:41.160;186.0;-481.0
11:39:41.200;236.0;-272.0
11:39:41.240;295.0;-406.0
11:39:41.280;259.0;-375.0
11:39:41.320;730.0;170.0
11:39:41.360;-605.0;459.0
11:39:41.400;-425.0;-1174.0
11:39:41.440;79.0;-389.0
11:39:41.480;279.0;-43.0
11:39:41.520;517.0;171.0
11:39:41.560;834.0;644.0
11:39:41.600;1140.0;1168.0
11:39:41.640;1074.0;1070.0
11:39:41.680;592.0;782.0
11:39:41.720;188.0;663.0
11:39:41.760;-35.0;503.0
11:39:43.106;204.0;427.0
11:39:43.146;175.0;788.0
11:39:43.186;38.0;528.0
11:39:43.226;-99.0;164.0
11:39:43.266;-105.0;498.0
11:39:43.306;-39.0;440.0
11:39:43.346;51.0;184.0
11:39:43.386;18.0;148.0
11:39:43.426;89.0;209.0
11:39:43.466;157.0;357.0
11:39:43.506;154.0;533.0
11:39:43.546;1457.0;2791.0
11:39:43.586;592.0;1545.0
11:39:43.626;272.0;20.0
11:39:43.666;26.0;-9.0
11:39:43.706;133.0;-40.0
11:39:43.746;338.0;229.0
11:39:43.786;605.0;967.0
11:39:43.826;791.0;959.0
11:39:43.866;527.0;611.0
11:39:43.906;70.0;659.0
11:39:43.946;-232.0;365.0
11:39:43.986;-389.0;-76.0
11:39:44.026;-231.0;51.0
11:39:44.066;-284.0;230.0
11:39:44.106;-276.0;294.0
11:39:44.146;-218.0;-32.0
11:39:44.186;-308.0;-176.0
11:39:44.226;-256.0;-95.0
11:39:44.266;-249.0;-148.0
11:39:44.306;905.0;60.0
11:39:44.346;1771.0;1826.0
11:39:44.386;133.0;4563.0
11:39:44.426;-226.0;3224.0
11:39:44.466;-355.0;496.0
11:39:44.506;-309.0;-848.0
11:39:44.546;-319.0;-1836.0
11:39:44.586;-259.0;-2513.0
11:39:44.626;25.0;-2456.0
11:39:44.666;308.0;-1045.0
11:39:44.706;24.0;-312.0
11:39:44.746;-242.0;-272.0
11:39:44.786;-201.0;-9.0
11:39:44.826;-274.0;93.0
11:39:44.866;-304.0;-45.0
11:39:44.906;-448.0;-283.0
11:39:44.946;-359.0;-18.0
11:39:44.986;-274.0;71.0
11:39:45.026;-171.0;271.0
11:39:45.066;-388.0;19.0
11:39:45.106;-303.0;22.0
11:39:45.146;-245.0;88.0
11:39:45.186;990.0;2393.0
11:39:45.226;82.0;961.0
11:39:45.266;-223.0;-460.0
11:39:45.306;-147.0;-378.0
11:39:45.346;-124.0;-321.0
11:39:45.386;30.0;-224.0
11:39:45.426;423.0;52.0
11:39:45.466;733.0;241.0
11:39:45.506;451.0;116.0
11:39:45.546;73.0;236.0
11:39:45.586;-302.0;190.0
11:39:45.626;-454.0;-158.0
11:39:45.666;-553.0;-49.0
11:39:45.706;-572.0;11.0
11:39:45.746;-508.0;-421.0
11:39:45.786;418.0;1215.0
11:39:45.826;-199.0;624.0
11:39:45.866;208.0;-416.0
11:39:45.906;-155.0;-504.0
11:39:45.946;-259.0;-272.0
11:39:45.986;-293.0;-94.0
11:39:46.026;-33.0;180.0
11:39:46.066;368.0;503.0
11:39:46.106;76.0;366.0
11:39:46.146;-342.0;185.0
11:39:46.186;-579.0;-181.0
11:39:46.226;-488.0;-236.0
11:39:46.266;608.0;2374.0
11:39:46.306;-160.0;854.0
11:39:46.346;-747.0;-53.0
11:39:46.386;-516.0;-221.0
11:39:46.426;-388.0;-273.0
11:39:46.466;-146.0;-344.0
11:39:46.506;195.0;-72.0
11:39:46.546;461.0;386.0
11:39:46.586;96.0;239.0
11:39:46.626;-172.0;-118.0
11:39:46.666;-400.0;-329.0
11:39:46.706;-297.0;-52.0
11:39:46.746;-245.0;-34.0
11:39:46.786;-508.0;-261.0
11:39:46.826;-581.0;-355.0
11:39:46.866;-469.0;-176.0
11:39:46.906;-542.0;-314.0
11:39:46.946;89.0;419.0
11:39:46.986;-1215.0;787.0
11:39:47.026;-1034.0;-1114.0
11:39:47.066;-649.0;-767.0
11:39:53.021;-97.0;491.0
11:39:53.061;40.0;735.0
11:39:53.101;110.0;705.0
11:39:53.141;278.0;858.0
11:39:53.181;566.0;1393.0
11:39:53.221;785.0;1475.0
11:39:53.261;361.0;865.0
11:39:53.301;-53.0;825.0
11:39:53.341;-225.0;649.0
11:39:53.381;-300.0;453.0
11:39:53.421;-346.0;390.0
11:39:53.461;-422.0;468.0
11:39:53.501;-510.0;200.0
11:39:53.541;-447.0;54.0
11:39:53.581;15.0;612.0
11:39:53.621;-1250.0;852.0
11:39:53.661;-797.0;-1105.0
11:39:53.701;-384.0;-545.0
11:39:53.741;-257.0;-135.0
11:39:53.781;-48.0;44.0
11:39:53.821;233.0;164.0
11:39:53.861;768.0;871.0
11:39:53.901;649.0;755.0
11:39:53.941;193.0;401.0
11:39:53.981;-167.0;197.0
11:39:54.021;-225.0;190.0
11:39:54.061;-227.0;176.0
11:39:54.101;836.0;1645.0
11:39:54.141;-130.0;742.0
11:39:54.181;-696.0;-394.0
11:39:54.221;-475.0;-451.0
11:39:54.261;-229.0;-494.0
11:39:54.301;-14.0;-270.0
11:39:54.341;265.0;261.0
11:39:54.381;537.0;771.0
11:39:54.421;481.0;592.0
11:39:54.461;1.0;320.0
11:39:54.501;-364.0;27.0
11:39:54.541;-402.0;259.0
11:39:54.581;-157.0;437.0
11:39:54.621;463.0;638.0
11:39:54.661;-1077.0;1047.0
11:39:54.701;-495.0;-559.0
11:39:54.741;-128.0;-3.0
11:39:54.781;75.0;102.0
11:39:54.821;162.0;351.0
11:39:54.861;498.0;799.0
11:39:54.901;940.0;1290.0
11:39:54.941;778.0;1213.0
11:39:54.981;353.0;815.0
11:39:55.021;48.0;713.0
11:39:55.061;70.0;780.0
11:39:55.101;647.0;1485.0
11:39:55.141;-70.0;886.0
11:39:55.181;-132.0;-117.0
11:39:55.221;-69.0;133.0
11:39:55.261;-53.0;130.0
11:39:55.301;81.0;347.0
11:39:55.341;389.0;734.0
11:39:55.381;617.0;1277.0
11:39:55.421;343.0;1027.0
11:39:55.461;-80.0;774.0
11:39:55.501;-201.0;694.0
11:39:55.541;995.0;2686.0
11:39:55.581;349.0;1590.0
11:39:55.621;-339.0;515.0
11:39:55.661;-365.0;-109.0
11:39:55.701;-175.0;-104.0
11:39:55.741;79.0;163.0
11:39:55.781;464.0;531.0
11:39:55.821;549.0;657.0
11:39:55.861;423.0;556.0
11:39:55.901;188.0;386.0
11:39:55.941;10.0;191.0
11:39:55.981;1.0;221.0
11:39:56.021;93.0;148.0
11:39:56.061;95.0;124.0
11:39:56.101;27.0;78.0
11:39:56.141;1356.0;2064.0
11:39:56.181;443.0;921.0
11:39:56.221;162.0;-719.0
11:39:56.261;-263.0;-747.0
11:39:56.301;-478.0;-794.0
11:39:56.341;-399.0;-444.0
11:39:56.381;-221.0;-28.0
11:39:56.421;-62.0;-46.0
11:39:56.461;-420.0;-185.0
11:39:56.501;-746.0;-416.0
11:39:56.541;-934.0;-608.0
11:39:56.581;-1043.0;-412.0
11:39:56.621;-994.0;-309.0
11:39:56.661;-918.0;-390.0
11:39:56.701;-723.0;-301.0
11:39:56.741;562.0;2371.0
11:39:56.781;-87.0;566.0
11:39:56.821;-755.0;-453.0
11:39:56.861;-657.0;-483.0
11:39:56.901;-458.0;-363.0
11:39:56.941;-176.0;-123.0
11:39:56.981;347.0;337.0
11:39:53.787;360.0;365.0
11:39:53.827;-363.0;-138.0
11:39:53.867;-571.0;-473.0
11:39:53.907;-601.0;-260.0
11:39:53.947;-669.0;-172.0
11:39:53.987;-759.0;-289.0
11:39:54.027;-769.0;-606.0
11:39:54.067;-650.0;-333.0
11:39:54.107;-608.0;-206.0
11:39:54.147;840.0;2333.0
11:39:54.187;-94.0;195.0
11:39:54.227;-739.0;-309.0
11:39:54.267;-660.0;-424.0
11:39:54.307;-509.0;-576.0
11:39:54.347;-66.0;-208.0
11:39:54.387;368.0;420.0
11:39:54.427;520.0;411.0
11:39:54.467;260.0;193.0
11:39:54.507;-30.0;120.0
11:39:54.547;-310.0;-85.0
11:39:54.587;-331.0;-173.0
11:39:54.627;-349.0;-265.0
11:39:54.667;-237.0;-206.0
11:39:54.707;-268.0;-275.0
11:39:54.747;-325.0;-261.0
11:39:54.787;-339.0;-305.0
11:39:54.827;-213.0;-234.0
11:39:54.867;395.0;508.0
11:39:54.907;-967.0;624.0
11:39:54.947;-419.0;-1553.0
11:39:54.987;-43.0;-577.0
11:39:55.027;-55.0;-196.0
11:39:55.067;-15.0;-80.0
11:39:55.107;444.0;460.0
11:39:55.147;888.0;1022.0
11:39:55.187;769.0;843.0
11:39:55.227;125.0;381.0
11:39:55.267;-170.0;376.0
11:39:55.307;-367.0;124.0
11:39:55.347;-507.0;-62.0
11:39:55.387;-638.0;-175.0
11:39:55.427;-491.0;169.0
11:39:55.467;-457.0;176.0
11:39:55.507;-475.0;68.0
11:39:55.547;-126.0;26.0
11:39:55.587;-895.0;1468.0
11:39:55.627;-812.0;-189.0
11:39:55.667;-816.0;-309.0
11:39:55.707;-403.0;-218.0
11:39:55.747;-128.0;67.0
11:39:55.787;192.0;265.0
11:39:55.827;623.0;807.0
11:39:55.867;665.0;733.0
11:39:55.907;275.0;369.0
11:39:55.947;-31.0;415.0
11:39:55.987;-196.0;80.0
11:39:56.027;-317.0;-229.0
11:39:56.067;-462.0;-284.0
11:39:56.107;-535.0;81.0
11:39:56.147;888.0;2534.0
11:39:56.187;124.0;1132.0
11:39:56.227;-353.0;-402.0
11:39:56.267;-376.0;-145.0
11:39:56.307;-264.0;-173.0
11:39:56.347;-52.0;-35.0
11:39:56.387;310.0;500.0
11:39:56.427;512.0;730.0
11:39:56.467;350.0;520.0
11:39:56.507;-142.0;192.0
11:39:56.547;-466.0;116.0
11:39:56.587;-545.0;45.0
11:39:56.627;-463.0;-7.0
11:39:56.667;-472.0;97.0
11:39:56.707;-558.0;52.0
11:39:56.747;-485.0;8.0
11:39:56.787;-439.0;-16.0
11:39:56.827;-419.0;131.0
11:39:56.867;-426.0;174.0
11:39:56.907;-448.0;143.0
11:39:56.947;-397.0;68.0
11:39:56.987;630.0;1718.0
11:39:57.027;-175.0;1021.0
11:39:57.067;-59.0;-739.0
11:39:57.107;-67.0;-276.0
11:39:57.147;-128.0;-174.0
11:39:57.187;-75.0;-94.0
11:39:57.227;187.0;422.0
11:39:57.267;750.0;1131.0
11:39:57.307;594.0;1086.0
11:39:57.347;102.0;763.0
11:39:57.387;-217.0;498.0
11:39:57.427;-232.0;390.0
11:39:57.467;-324.0;312.0
11:39:57.507;-400.0;193.0
11:39:57.547;-428.0;-100.0
11:39:57.587;-276.0;162.0
11:39:57.627;-201.0;250.0
11:39:57.667;-204.0;107.0
11:39:57.707;-46.0;-98.0
11:39:57.747;79.0;2087.0
11:39:58.770;-98.0;280.0
11:39:58.810;34.0;-4.0
11:39:58.850;319.0;258.0
11:39:58.890;694.0;753.0
11:39:58.930;869.0;691.0
11:39:58.970;356.0;333.0
11:39:59.010;65.0;256.0
11:39:59.050;-100.0;70.0
11:39:59.090;-133.0;-54.0
11:39:59.130;-282.0;-343.0
11:39:59.170;-269.0;-96.0
11:39:59.210;-176.0;-88.0
11:39:59.250;-244.0;-10.0
11:39:59.290;-262.0;-165.0
11:39:59.330;1319.0;2749.0
11:39:59.370;468.0;883.0
11:39:59.410;-163.0;28.0
11:39:59.450;-262.0;-197.0
11:39:59.490;-151.0;-322.0
11:39:59.530;128.0;-125.0
11:39:59.570;495.0;496.0
11:39:59.610;847.0;768.0
11:39:59.650;600.0;582.0
11:39:59.690;364.0;339.0
11:39:59.730;-90.0;160.0
11:39:59.770;-228.0;109.0
11:39:59.810;-207.0;76.0
11:39:59.850;-184.0;83.0
11:39:59.890;-123.0;131.0
11:39:59.930;-105.0;154.0
11:39:59.970;-87.0;-85.0
11:40:00.010;-148.0;26.0
11:40:00.050;-182.0;18.0
11:40:00.090;-216.0;4.0
11:40:00.130;7.0;218.0
11:40:00.170;438.0;692.0
11:40:00.210;-872.0;869.0
11:40:00.250;-325.0;-887.0
11:40:00.290;59.0;-439.0
11:40:00.330;85.0;-270.0
11:40:00.370;121.0;-115.0
11:40:00.410;487.0;219.0
11:40:00.450;988.0;762.0
11:40:00.490;797.0;722.0
11:40:00.530;251.0;489.0
11:40:00.570;-38.0;231.0
11:40:00.610;-128.0;120.0
11:40:00.650;-194.0;139.0
11:40:00.690;946.0;2491.0
11:40:00.730;107.0;1251.0
11:40:00.770;-507.0;317.0
11:40:00.810;-402.0;-293.0
11:40:00.850;-207.0;-184.0
11:40:00.890;120.0;-61.0
11:40:00.930;531.0;307.0
11:40:00.970;799.0;585.0
11:40:01.010;436.0;361.0
11:40:01.050;-13.0;92.0
11:40:01.090;-224.0;-36.0
11:40:01.130;-315.0;-124.0
11:40:01.170;-316.0;-187.0
11:40:01.210;-343.0;-13.0
11:40:01.250;-335.0;26.0
11:40:01.290;-419.0;-104.0
11:40:01.330;374.0;656.0
11:40:01.370;-737.0;656.0
11:40:01.410;-689.0;-1376.0
11:40:01.450;-437.0;-942.0
11:40:01.490;-191.0;-479.0
11:40:01.530;-10.0;-270.0
11:40:01.570;374.0;57.0
11:40:01.610;808.0;671.0
11:40:01.650;440.0;445.0
11:40:01.690;18.0;53.0
11:40:01.730;-66.0;94.0
11:40:01.770;-162.0;15.0
11:40:01.810;-239.0;3.0
11:40:01.850;-283.0;74.0
11:40:01.890;-315.0;-40.0
11:40:01.930;-266.0;24.0
11:40:01.970;-303.0;-143.0
11:40:02.010;1037.0;482.0
11:40:02.050;1350.0;2202.0
11:40:02.090;-410.0;4021.0
11:40:02.130;-418.0;2727.0
11:40:02.170;-485.0;235.0
11:40:02.210;-405.0;-1378.0
11:40:02.250;-358.0;-2512.0
11:40:02.290;-126.0;-2920.0
11:40:02.330;216.0;-2684.0
11:40:02.370;55.0;-1512.0
11:40:02.410;-241.0;-493.0
11:40:02.450;-284.0;-43.0
11:40:02.490;-200.0;186.0
11:40:02.530;-380.0;14.0
11:40:02.570;-394.0;199.0
11:40:02.610;-313.0;177.0
11:40:02.650;-95.0;311.0
11:40:02.690;-142.0;454.0
11:40:02.730;-197.0;528.0
11:40:03.152;-232.0;370.0
11:40:03.192;-1153.0;953.0
11:40:03.232;-389.0;-547.0
11:40:03.272;-65.0;-96.0
11:40:03.312;4.0;110.0
11:40:03.352;162.0;91.0
11:40:03.392;611.0;542.0
11:40:03.432;949.0;1103.0
11:40:03.472;954.0;1039.0
11:40:03.512;559.0;897.0
11:40:03.552;132.0;649.0
11:40:03.592;-88.0;553.0
11:40:03.632;-168.0;323.0
11:40:03.672;-96.0;497.0
11:40:03.712;-138.0;445.0
11:40:03.752;-152.0;233.0
11:40:03.792;-156.0;250.0
11:40:03.832;-81.0;417.0
11:40:03.872;-42.0;392.0
11:40:03.912;17.0;491.0
11:40:03.952;271.0;429.0
11:40:03.992;-826.0;1158.0
11:40:04.032;-460.0;39.0
11:40:04.072;-334.0;-82.0
11:40:04.112;106.0;235.0
11:40:04.152;327.0;423.0
11:40:04.192;708.0;356.0
11:40:04.232;1281.0;868.0
11:40:04.272;1352.0;1048.0
11:40:04.312;727.0;846.0
11:40:04.352;367.0;533.0
11:40:04.392;104.0;326.0
11:40:04.432;-37.0;239.0
11:40:04.472;-45.0;283.0
11:40:04.512;-54.0;254.0
11:40:04.552;-78.0;83.0
11:40:04.592;211.0;353.0
11:40:04.632;1373.0;1393.0
11:40:04.672;2005.0;5192.0
11:40:04.712;553.0;2446.0
11:40:04.752;-273.0;407.0
11:40:04.792;-650.0;-677.0
11:40:04.832;-673.0;-1431.0
11:40:04.872;-523.0;-1672.0
11:40:04.912;-567.0;-1417.0
11:40:04.952;-381.0;-457.0
11:40:04.992;-331.0;-291.0
11:40:05.032;-183.0;-162.0
11:40:05.072;-183.0;-17.0
11:40:05.112;-202.0;-153.0
11:40:05.152;1155.0;2351.0
11:40:05.192;216.0;1514.0
11:40:05.232;-261.0;159.0
11:40:05.272;-236.0;-298.0
11:40:05.312;-98.0;-365.0
11:40:05.352;3.0;-347.0
11:40:05.392;225.0;-68.0
11:40:05.432;682.0;213.0
11:40:05.472;382.0;-23.0
11:40:05.512;-36.0;-273.0
11:40:05.552;-106.0;-180.0
11:40:05.592;-357.0;-130.0
11:40:05.632;-383.0;-225.0
11:40:05.672;-383.0;-435.0
11:40:05.712;-318.0;-199.0
11:40:05.752;207.0;214.0
11:40:05.792;-1175.0;193.0
11:40:05.832;-752.0;-1688.0
11:40:05.872;-320.0;-924.0
11:40:05.912;-112.0;-544.0
11:40:05.952;136.0;-453.0
11:40:05.992;456.0;167.0
11:40:06.032;828.0;702.0
11:40:06.072;714.0;511.0
11:40:06.112;308.0;9.0
11:40:06.152;-38.0;30.0
11:40:06.192;-240.0;27.0
11:40:06.232;-222.0;-101.0
11:40:06.272;-124.0;20.0
11:40:06.312;-89.0;-35.0
11:40:06.352;1143.0;426.0
11:40:06.392;1317.0;2334.0
11:40:06.432;-485.0;3847.0
11:40:06.472;-255.0;2361.0
11:40:06.512;-314.0;13.0
11:40:06.552;-258.0;-1287.0
11:40:06.592;-385.0;-2477.0
11:40:06.632;-73.0;-3256.0
11:40:06.672;198.0;-2812.0
11:40:06.712;63.0;-1172.0
11:40:06.752;-190.0;-650.0
11:40:06.792;-154.0;-373.0
11:40:06.832;-227.0;-147.0
11:40:06.872;-310.0;100.0
11:40:06.912;-255.0;-18.0
11:40:06.952;-187.0;-185.0
11:40:06.992;-146.0;11.0
11:40:07.032;-143.0;39.0
11:40:07.072;-135.0;-36.0
11:40:07.112;1197.0;2650.0
11:40:08.991;433.0;728.0
11:40:09.031;136.0;80.0
11:40:09.071;78.0;-306.0
11:40:09.111;332.0;-54.0
11:40:09.151;667.0;411.0
11:40:09.191;502.0;116.0
11:40:09.231;127.0;-317.0
11:40:09.271;844.0;2556.0
11:40:09.311;-152.0;710.0
11:40:09.351;-298.0;-214.0
11:40:09.391;-368.0;-835.0
11:40:09.431;-266.0;-661.0
11:40:09.471;17.0;-545.0
11:40:09.511;459.0;-246.0
11:40:09.551;499.0;-193.0
11:40:09.591;143.0;-174.0
11:40:09.631;-175.0;-444.0
11:40:09.671;-359.0;-573.0
11:40:09.711;-422.0;-320.0
11:40:09.751;-414.0;-336.0
11:40:09.791;-362.0;-448.0
11:40:09.831;-471.0;-524.0
11:40:09.871;-458.0;-278.0
11:40:09.911;-341.0;-253.0
11:40:09.951;627.0;2315.0
11:40:09.991;-69.0;608.0
11:40:10.031;-539.0;-101.0
11:40:10.071;-360.0;-351.0
11:40:10.111;-331.0;-652.0
11:40:10.151;-87.0;-396.0
11:40:10.191;411.0;189.0
11:40:10.231;558.0;290.0
11:40:10.271;126.0;-149.0
11:40:10.311;-149.0;-77.0
11:40:10.351;-256.0;-185.0
11:40:10.391;-460.0;-320.0
11:40:10.431;-395.0;-94.0
11:40:10.471;-256.0;-133.0
11:40:10.511;1256.0;2502.0
11:40:10.551;59.0;924.0
11:40:10.591;-644.0;0.0
11:40:10.631;-486.0;-479.0
11:40:10.671;-269.0;-284.0
11:40:10.711;6.0;-89.0
11:40:10.751;494.0;192.0
11:40:10.791;673.0;304.0
11:40:10.831;97.0;35.0
11:40:10.871;-371.0;-276.0
11:40:10.911;-357.0;-345.0
11:40:10.951;-468.0;-294.0
11:40:10.991;-662.0;-449.0
11:40:11.031;-486.0;-472.0
11:40:11.071;-509.0;-412.0
11:40:11.111;-562.0;-497.0
11:40:11.151;-39.0;-51.0
11:40:11.191;-1231.0;78.0
11:40:11.231;-557.0;-1557.0
11:40:11.271;-357.0;-1089.0
11:40:11.311;-251.0;-764.0
11:40:11.351;-91.0;-504.0
11:40:11.391;242.0;6.0
11:40:11.431;607.0;735.0
11:40:11.471;531.0;423.0
11:40:11.511;191.0;140.0
11:40:11.551;-120.0;162.0
11:40:11.591;-288.0;-88.0
11:40:11.631;-152.0;-64.0
11:40:11.671;-219.0;-100.0
11:40:11.711;-326.0;-261.0
11:40:11.751;-258.0;-338.0
11:40:11.791;-354.0;-241.0
11:40:11.831;-387.0;-314.0
11:40:11.871;-309.0;-345.0
11:40:11.911;202.0;-265.0
11:40:11.951;229.0;668.0
11:40:11.991;550.0;434.0
11:40:12.031;65.0;-268.0
11:40:12.071;-74.0;-678.0
11:40:12.111;-216.0;-689.0
11:40:12.151;-108.0;-577.0
11:40:12.191;206.0;-83.0
11:40:12.231;206.0;-1.0
11:40:12.271;-89.0;-156.0
11:40:12.311;-225.0;-138.0
11:40:12.351;-266.0;-145.0
11:40:12.391;-25.0;-85.0
11:40:12.431;-91.0;-58.0
11:40:12.471;-70.0;-152.0
11:40:12.511;49.0;-100.0
11:40:12.551;23.0;6.0
11:40:12.591;-15.0;-101.0
11:40:12.631;-39.0;-78.0
11:40:12.671;-14.0;-86.0
11:40:12.711;-35.0;1.0
11:40:12.751;-4.0;117.0
11:40:12.791;646.0;406.0
11:40:12.831;535.0;967.0
11:40:12.871;589.0;445.0
11:40:12.911;160.0;52.0
11:40:12.951;-20.0;-533.0
11:40:09.552;-80.0;-667.0
11:40:09.592;-41.0;-282.0
11:40:09.632;-84.0;-25.0
11:40:09.672;-83.0;-56.0
11:40:09.712;-78.0;-8.0
11:40:09.752;-101.0;-5.0
11:40:09.792;-59.0;-27.0
11:40:09.832;-64.0;93.0
11:40:09.872;106.0;-33.0
11:40:09.912;1641.0;700.0
11:40:09.952;540.0;1769.0
11:40:09.992;118.0;733.0
11:40:10.032;-135.0;-90.0
11:40:10.072;-275.0;-623.0
11:40:10.112;-248.0;-692.0
11:40:10.152;4.0;-445.0
11:40:10.192;51.0;-131.0
11:40:10.232;124.0;35.0
11:40:10.272;102.0;101.0
11:40:10.312;90.0;99.0
11:40:10.352;733.0;302.0
11:40:10.392;1581.0;2307.0
11:40:10.432;184.0;4397.0
11:40:10.472;155.0;2407.0
11:40:10.512;-120.0;173.0
11:40:10.552;-292.0;-964.0
11:40:10.592;-374.0;-1727.0
11:40:10.632;-267.0;-2247.0
11:40:10.672;14.0;-1675.0
11:40:10.712;216.0;-447.0
11:40:10.752;72.0;-170.0
11:40:10.792;-44.0;-269.0
11:40:10.832;-144.0;-143.0
11:40:10.872;-109.0;38.0
11:40:10.912;-131.0;-49.0
11:40:10.952;-298.0;-367.0
11:40:10.992;-210.0;-108.0
11:40:11.032;-147.0;-16.0
11:40:11.072;-212.0;-98.0
11:40:11.112;-52.0;-16.0
11:40:11.152;-98.0;-24.0
11:40:11.192;199.0;85.0
11:40:11.232;-859.0;592.0
11:40:11.272;418.0;470.0
11:40:11.312;195.0;-1.0
11:40:11.352;-39.0;-384.0
11:40:11.392;-100.0;-699.0
11:40:11.432;84.0;-304.0
11:40:11.472;263.0;168.0
11:40:11.512;123.0;24.0
11:40:11.552;11.0;64.0
11:40:11.592;-47.0;-73.0
11:40:11.632;-212.0;-124.0
11:40:11.672;-266.0;-44.0
11:40:11.712;-177.0;23.0
11:40:11.752;-148.0;-181.0
11:40:11.792;-159.0;10.0
11:40:11.832;-301.0;-87.0
11:40:11.872;-289.0;-180.0
11:40:11.912;284.0;339.0
11:40:11.952;-1083.0;450.0
11:40:11.992;-709.0;-1569.0
11:40:12.032;-181.0;-566.0
11:40:12.072;33.0;-126.0
11:40:12.112;157.0;-139.0
11:40:12.152;539.0;386.0
11:40:12.192;921.0;1040.0
11:40:12.232;777.0;781.0
11:40:12.272;414.0;644.0
11:40:12.312;165.0;618.0
11:40:12.352;-26.0;501.0
11:40:12.392;-141.0;369.0
11:40:12.432;-311.0;55.0
11:40:12.472;-319.0;67.0
11:40:12.512;-241.0;298.0
11:40:12.552;-261.0;229.0
11:40:12.592;-274.0;99.0
11:40:12.632;-167.0;372.0
11:40:12.672;1387.0;3221.0
11:40:12.712;326.0;1373.0
11:40:12.752;-425.0;241.0
11:40:12.792;-229.0;-32.0
11:40:12.832;-88.0;37.0
11:40:12.872;93.0;74.0
11:40:12.912;556.0;634.0
11:40:12.952;828.0;817.0
11:40:12.992;412.0;473.0
11:40:13.032;-51.0;304.0
11:40:13.072;-137.0;220.0
11:40:13.112;-204.0;-27.0
11:40:13.152;1069.0;2409.0
11:40:13.192;354.0;1157.0
11:40:13.232;-366.0;-42.0
11:40:13.272;-295.0;-538.0
11:40:13.312;-160.0;-566.0
11:40:13.352;212.0;-159.0
11:40:13.392;505.0;53.0
11:40:13.432;780.0;83.0
11:40:13.472;494.0;-29.0
11:40:13.512;81.0;-258.0
11:40:12.235;-107.0;-501.0
11:40:12.275;-177.0;-629.0
11:40:12.315;-37.0;-476.0
11:40:12.355;-40.0;-447.0
11:40:12.395;1174.0;1982.0
11:40:12.435;271.0;584.0
11:40:12.475;-24.0;-1257.0
11:40:12.515;-34.0;-918.0
11:40:12.555;-39.0;-795.0
11:40:12.595;176.0;-668.0
11:40:12.635;612.0;-178.0
11:40:12.675;937.0;38.0
11:40:12.715;538.0;-45.0
11:40:12.755;69.0;-330.0
11:40:12.795;-145.0;-273.0
11:40:12.835;-143.0;-249.0
11:40:12.875;-168.0;-462.0
11:40:12.915;1243.0;2021.0
11:40:12.955;347.0;794.0
11:40:12.995;-97.0;-752.0
11:40:13.035;46.0;-793.0
11:40:13.075;147.0;-644.0
11:40:13.115;417.0;-496.0
11:40:13.155;733.0;-117.0
11:40:13.195;1001.0;49.0
11:40:13.235;644.0;-109.0
11:40:13.275;252.0;-256.0
11:40:13.315;16.0;-351.0
11:40:13.355;-48.0;-494.0
11:40:13.395;-36.0;-515.0
11:40:13.435;-21.0;-397.0
11:40:13.475;-74.0;-455.0
11:40:13.515;3.0;-503.0
11:40:13.555;1450.0;-140.0
11:40:13.595;827.0;1959.0
11:40:13.635;77.0;359.0
11:40:13.675;-404.0;-697.0
11:40:13.715;-506.0;-1010.0
11:40:13.755;-598.0;-1444.0
11:40:13.795;-409.0;-1420.0
11:40:13.835;-62.0;-384.0
11:40:13.875;-39.0;-108.0
11:40:13.915;-108.0;-326.0
11:40:13.955;-38.0;-363.0
11:40:13.995;-111.0;-180.0
11:40:14.035;-70.0;-300.0
11:40:14.075;133.0;-234.0
11:40:14.115;197.0;-204.0
11:40:14.155;63.0;-188.0
11:40:14.195;156.0;-4.0
11:40:14.235;1515.0;714.0
11:40:14.275;2830.0;5205.0
11:40:14.315;791.0;2051.0
11:40:14.355;-44.0;150.0
11:40:14.395;-398.0;-844.0
11:40:14.435;-438.0;-1451.0
11:40:14.475;-503.0;-1897.0
11:40:14.515;-471.0;-1213.0
11:40:14.555;-325.0;-416.0
11:40:14.595;-194.0;-160.0
11:40:14.635;-252.0;-276.0
11:40:14.675;-235.0;-108.0
11:40:14.715;-157.0;-43.0
11:40:14.755;-65.0;-151.0
11:40:14.795;961.0;219.0
11:40:14.835;1250.0;2237.0
11:40:14.875;-327.0;3831.0
11:40:14.915;-192.0;2210.0
11:40:14.955;-300.0;-34.0
11:40:14.995;-239.0;-1306.0
11:40:15.035;-24.0;-2235.0
11:40:15.075;102.0;-3034.0
11:40:15.115;400.0;-2354.0
11:40:15.155;299.0;-837.0
11:40:15.195;49.0;-161.0
11:40:15.235;-182.0;128.0
11:40:15.275;-250.0;153.0
11:40:15.315;-257.0;183.0
11:40:15.355;-133.0;44.0
11:40:15.395;935.0;677.0
11:40:15.435;1647.0;1986.0
11:40:15.475;-282.0;4629.0
11:40:15.515;-241.0;3392.0
11:40:15.555;-321.0;929.0
11:40:15.595;-393.0;-933.0
11:40:15.635;-349.0;-2128.0
11:40:15.675;-125.0;-2770.0
11:40:15.715;233.0;-2701.0
11:40:15.755;339.0;-1309.0
11:40:15.795;30.0;-554.0
11:40:15.835;-13.0;-377.0
11:40:15.875;-90.0;-308.0
11:40:15.915;-37.0;-96.0
11:40:15.955;-146.0;-247.0
11:40:15.995;188.0;-15.0
11:40:16.035;1541.0;904.0
11:40:16.075;890.0;3078.0
11:40:16.115;-463.0;3029.0
11:40:16.155;-466.0;975.0
11:40:16.195;-461.0;-769.0
11:40:16.827;-457.0;-2098.0
11:40:16.867;-311.0;-1737.0
11:40:16.907;-288.0;-1546.0
11:40:16.947;-204.0;-1321.0
11:40:16.987;-15.0;-1192.0
11:40:17.027;1034.0;-622.0
11:40:17.067;1017.0;997.0
11:40:17.107;-288.0;2485.0
11:40:17.147;-48.0;1390.0
11:40:17.187;-508.0;-486.0
11:40:17.227;-607.0;-1359.0
11:40:17.267;-504.0;-2066.0
11:40:17.307;-420.0;-2496.0
11:40:17.347;-154.0;-1866.0
11:40:17.387;-70.0;-582.0
11:40:17.427;-179.0;-121.0
11:40:17.467;-335.0;-13.0
11:40:17.507;-92.0;204.0
11:40:17.547;1281.0;1220.0
11:40:17.587;597.0;3390.0
11:40:17.627;-626.0;3189.0
11:40:17.667;-552.0;1261.0
11:40:17.707;-552.0;-645.0
11:40:17.747;-680.0;-1967.0
11:40:17.787;-531.0;-2553.0
11:40:17.827;-205.0;-2764.0
11:40:17.867;146.0;-1611.0
11:40:17.907;-75.0;-776.0
11:40:17.947;-161.0;-11.0
11:40:17.987;-232.0;122.0
11:40:18.027;-280.0;137.0
11:40:18.067;-310.0;-1.0
11:40:18.107;-301.0;105.0
11:40:18.147;-195.0;240.0
11:40:18.187;-129.0;341.0
11:40:18.227;-324.0;101.0
11:40:18.267;-290.0;238.0
11:40:18.307;1254.0;3053.0
11:40:18.347;332.0;1230.0
11:40:18.387;-411.0;272.0
11:40:18.427;-460.0;-174.0
11:40:18.467;-243.0;-278.0
11:40:18.507;76.0;-102.0
11:40:18.547;323.0;552.0
11:40:18.587;499.0;739.0
11:40:18.627;369.0;540.0
11:40:18.667;54.0;249.0
11:40:18.707;-258.0;113.0
11:40:18.747;-366.0;55.0
11:40:18.787;-359.0;-19.0
11:40:18.827;-229.0;-170.0
11:40:18.867;-273.0;-9.0
11:40:18.907;-365.0;10.0
11:40:18.947;-359.0;-66.0
11:40:18.987;-344.0;-342.0
11:40:19.027;-321.0;-3.0
11:40:19.067;808.0;2154.0
11:40:19.107;-12.0;881.0
11:40:19.147;-253.0;-607.0
11:40:19.187;-160.0;-292.0
11:40:19.227;-226.0;-197.0
11:40:19.267;-150.0;-287.0
11:40:19.307;127.0;234.0
11:40:19.347;544.0;701.0
11:40:19.387;229.0;389.0
11:40:19.427;-139.0;186.0
11:40:19.467;-277.0;77.0
11:40:19.507;-299.0;-15.0
11:40:19.547;-370.0;-158.0
11:40:19.587;-359.0;25.0
11:40:19.627;-213.0;45.0
11:40:19.667;-239.0;26.0
11:40:19.707;-195.0;149.0
11:40:19.747;1461.0;2705.0
11:40:19.787;520.0;904.0
11:40:19.827;-106.0;59.0
11:40:19.867;-197.0;-206.0
11:40:19.907;-110.0;-460.0
11:40:19.947;217.0;20.0
11:40:19.987;525.0;532.0
11:40:20.027;803.0;594.0
11:40:20.067;548.0;213.0
11:40:20.107;24.0;-5.0
11:40:20.147;-304.0;-132.0
11:40:20.187;-238.0;-60.0
11:40:20.227;-244.0;56.0
11:40:20.267;-350.0;-13.0
11:40:20.307;-403.0;-97.0
11:40:20.347;-261.0;-41.0
11:40:20.387;-313.0;-102.0
11:40:20.427;-348.0;-202.0
11:40:20.467;-326.0;-342.0
11:40:20.507;-248.0;-94.0
11:40:20.547;-328.0;-68.0
11:40:20.587;-289.0;-70.0
11:40:20.627;-270.0;-225.0
11:40:20.667;-213.0;-73.0
11:40:20.707;1110.0;2643.0
11:40:20.747;327.0;886.0
11:40:20.787;220.0;372.0
11:40:23.805;-68.0;-84.0
11:40:23.845;373.0;270.0
11:40:23.885;446.0;106.0
11:40:23.925;119.0;72.0
11:40:23.965;-203.0;7.0
11:40:24.005;-348.0;-185.0
11:40:24.045;-415.0;-111.0
11:40:24.085;-400.0;-97.0
11:40:24.125;-382.0;-148.0
11:40:24.165;17.0;-198.0
11:40:24.205;-975.0;771.0
11:40:24.245;-891.0;-554.0
11:40:24.285;-462.0;-371.0
11:40:24.325;-214.0;-211.0
11:40:24.365;45.0;-210.0
11:40:24.405;360.0;183.0
11:40:24.445;868.0;670.0
11:40:24.485;922.0;712.0
11:40:24.525;385.0;368.0
11:40:24.565;-73.0;128.0
11:40:24.605;-336.0;-149.0
11:40:24.645;-264.0;-247.0
11:40:24.685;476.0;1901.0
11:40:24.725;-105.0;136.0
11:40:24.765;-440.0;-317.0
11:40:24.805;-368.0;-461.0
11:40:24.845;-252.0;-517.0
11:40:24.885;-54.0;-719.0
11:40:24.925;368.0;-50.0
11:40:24.965;532.0;235.0
11:40:25.005;83.0;-39.0
11:40:25.045;-294.0;-618.0
11:40:25.085;-258.0;-365.0
11:40:25.125;-225.0;-217.0
11:40:25.165;-180.0;-201.0
11:40:25.205;-260.0;-243.0
11:40:25.245;-210.0;-126.0
11:40:25.285;-293.0;-221.0
11:40:25.325;-351.0;-506.0
11:40:25.365;-422.0;-411.0
11:40:25.405;-263.0;-224.0
11:40:25.445;-295.0;-215.0
11:40:25.485;-413.0;-639.0
11:40:25.525;-295.0;-294.0
11:40:25.565;-128.0;-183.0
11:40:25.605;-229.0;-242.0
11:40:25.645;-322.0;-321.0
11:40:25.685;-181.0;-122.0
11:40:25.725;262.0;-184.0
11:40:25.765;-390.0;1272.0
11:40:25.805;44.0;-5.0
11:40:25.845;135.0;-131.0
11:40:25.885;167.0;-320.0
11:40:25.925;147.0;-398.0
11:40:25.965;247.0;-371.0
11:40:26.005;623.0;105.0
11:40:26.045;780.0;368.0
11:40:26.085;322.0;144.0
11:40:26.125;87.0;-47.0
11:40:26.165;139.0;-50.0
11:40:26.205;-83.0;-45.0
11:40:26.245;-102.0;-152.0
11:40:26.285;79.0;-178.0
11:40:26.325;24.0;-114.0
11:40:26.365;-105.0;-233.0
11:40:26.405;-49.0;-242.0
11:40:26.445;27.0;-234.0
11:40:26.485;-37.0;-105.0
11:40:26.525;-78.0;-283.0
11:40:26.565;1306.0;2575.0
11:40:26.605;629.0;650.0
11:40:26.645;-155.0;-137.0
11:40:26.685;-116.0;-269.0
11:40:26.725;43.0;-340.0
11:40:26.765;304.0;-289.0
11:40:26.805;777.0;235.0
11:40:26.845;997.0;388.0
11:40:26.885;637.0;73.0
11:40:26.925;159.0;-189.0
11:40:26.965;-148.0;-47.0
11:40:27.005;-202.0;-163.0
11:40:27.045;-161.0;-351.0
11:40:27.085;-156.0;-359.0
11:40:27.125;-143.0;-181.0
11:40:27.165;-146.0;-303.0
11:40:27.205;-111.0;-436.0
11:40:27.245;-136.0;-258.0
11:40:27.285;1057.0;2145.0
11:40:27.325;287.0;1062.0
11:40:27.365;-228.0;-726.0
11:40:27.405;-195.0;-529.0
11:40:27.445;-104.0;-354.0
11:40:27.485;99.0;-285.0
11:40:27.525;465.0;163.0
11:40:27.565;907.0;556.0
11:40:27.605;643.0;289.0
11:40:27.645;63.0;-175.0
11:40:27.685;-228.0;-232.0
11:40:27.725;-310.0;-161.0
11:40:27.765;-433.0;-304.0
11:40:24.838;-337.0;-180.0
11:40:24.878;-424.0;-384.0
11:40:24.918;-364.0;-212.0
11:40:24.958;-58.0;-358.0
11:40:24.998;-98.0;1397.0
11:40:25.038;401.0;1080.0
11:40:25.078;109.0;329.0
11:40:25.118;-97.0;-140.0
11:40:25.158;-283.0;-378.0
11:40:25.198;-375.0;-559.0
11:40:25.238;-9.0;-32.0
11:40:25.278;47.0;173.0
11:40:25.318;-245.0;2.0
11:40:25.358;-384.0;-176.0
11:40:25.398;-321.0;-105.0
11:40:25.438;-320.0;18.0
11:40:25.478;326.0;847.0
11:40:25.518;-678.0;551.0
11:40:25.558;-543.0;-616.0
11:40:25.598;-267.0;-316.0
11:40:25.638;-183.0;-530.0
11:40:25.678;53.0;-243.0
11:40:25.718;306.0;272.0
11:40:25.758;561.0;481.0
11:40:25.798;396.0;387.0
11:40:25.838;90.0;82.0
11:40:25.878;-111.0;-6.0
11:40:25.918;-184.0;-279.0
11:40:25.958;189.0;-223.0
11:40:25.998;-1028.0;732.0
11:40:26.038;-384.0;-660.0
11:40:26.078;-274.0;-750.0
11:40:26.118;-82.0;-447.0
11:40:26.158;38.0;-218.0
11:40:26.198;398.0;269.0
11:40:26.238;671.0;538.0
11:40:26.278;574.0;472.0
11:40:26.318;116.0;229.0
11:40:26.358;-152.0;-2.0
11:40:26.398;-208.0;115.0
11:40:26.438;-174.0;-74.0
11:40:26.478;-141.0;-85.0
11:40:26.518;-246.0;-237.0
11:40:26.558;-239.0;-15.0
11:40:26.598;-291.0;0.0
11:40:26.638;-368.0;8.0
11:40:26.678;-402.0;-257.0
11:40:26.718;-273.0;-98.0
11:40:26.758;-277.0;-14.0
11:40:26.798;5.0;-5.0
11:40:26.838;2529.0;2569.0
11:40:26.878;1031.0;1507.0
11:40:26.918;152.0;177.0
11:40:26.958;-243.0;-541.0
11:40:26.998;-233.0;-946.0
11:40:27.038;-207.0;-936.0
11:40:27.078;-146.0;-604.0
11:40:27.118;-32.0;43.0
11:40:27.158;19.0;165.0
11:40:27.198;-194.0;3.0
11:40:27.238;-249.0;105.0
11:40:27.278;-201.0;49.0
11:40:27.318;-52.0;130.0
11:40:27.358;1098.0;617.0
11:40:27.398;1062.0;2314.0
11:40:27.438;-661.0;3393.0
11:40:27.478;-286.0;1972.0
11:40:27.518;-534.0;-107.0
11:40:27.558;-535.0;-1414.0
11:40:27.598;-200.0;-2191.0
11:40:27.638;32.0;-2454.0
11:40:27.678;393.0;-1862.0
11:40:27.718;215.0;-930.0
11:40:27.758;-142.0;-790.0
11:40:27.798;-94.0;-348.0
11:40:27.838;-139.0;-94.0
11:40:27.878;-204.0;-35.0
11:40:27.918;-422.0;-641.0
11:40:27.958;-200.0;-345.0
11:40:27.998;-172.0;0.0
11:40:28.038;-242.0;48.0
11:40:28.078;-300.0;-198.0
11:40:28.118;-212.0;16.0
11:40:28.158;-233.0;45.0
11:40:28.198;-364.0;-207.0
11:40:28.238;516.0;731.0
11:40:28.278;-522.0;873.0
11:40:28.318;-581.0;-1220.0
11:40:28.358;-413.0;-701.0
11:40:28.398;-137.0;-345.0
11:40:28.438;41.0;-245.0
11:40:28.478;282.0;-43.0
11:40:28.518;753.0;699.0
11:40:28.558;625.0;570.0
11:40:28.598;110.0;210.0
11:40:28.638;-237.0;-308.0
11:40:28.678;-379.0;-70.0
11:40:28.718;-405.0;-112.0
11:40:28.758;-450.0;-410.0
11:40:28.798;-342.0;-309.0
11:40:25.238;-254.0;-154.0
11:40:25.278;-298.0;-105.0
11:40:25.318;-271.0;-198.0
11:40:25.358;-252.0;-162.0
11:40:25.398;1221.0;1017.0
11:40:25.438;961.0;1577.0
11:40:25.478;294.0;560.0
11:40:25.518;-137.0;-237.0
11:40:25.558;-340.0;-745.0
11:40:25.598;-497.0;-720.0
11:40:25.638;-273.0;-470.0
11:40:25.678;-1.0;-187.0
11:40:25.718;-157.0;-203.0
11:40:25.758;-308.0;-27.0
11:40:25.798;-322.0;5.0
11:40:25.838;-280.0;-165.0
11:40:25.878;-292.0;-335.0
11:40:25.918;1090.0;2799.0
11:40:25.958;321.0;1265.0
11:40:25.998;-480.0;60.0
11:40:26.038;-413.0;-636.0
11:40:26.078;-50.0;-346.0
11:40:26.118;174.0;-108.0
11:40:26.158;424.0;115.0
11:40:26.198;540.0;161.0
11:40:26.238;414.0;212.0
11:40:26.278;35.0;25.0
11:40:26.318;-236.0;-345.0
11:40:26.358;-316.0;-253.0
11:40:26.398;385.0;237.0
11:40:26.438;-1039.0;455.0
11:40:26.478;-324.0;-1167.0
11:40:26.518;-214.0;-664.0
11:40:26.558;-11.0;-284.0
11:40:26.598;-84.0;-387.0
11:40:26.638;112.0;83.0
11:40:26.678;594.0;667.0
11:40:26.718;625.0;506.0
11:40:26.758;-2.0;239.0
11:40:26.798;-328.0;14.0
11:40:26.838;-240.0;-87.0
11:40:26.878;-168.0;-118.0
11:40:26.918;-327.0;-39.0
11:40:26.958;-304.0;-64.0
11:40:26.998;-252.0;-216.0
11:40:27.038;990.0;620.0
11:40:27.078;626.0;1978.0
11:40:27.118;106.0;671.0
11:40:27.158;-59.0;-19.0
11:40:27.198;-188.0;-262.0
11:40:27.238;-211.0;-548.0
11:40:27.278;-90.0;-390.0
11:40:27.318;57.0;-67.0
11:40:27.358;-9.0;31.0
11:40:27.398;-37.0;362.0
11:40:27.438;-128.0;218.0
11:40:27.478;-140.0;97.0
11:40:27.518;-94.0;269.0
11:40:27.558;-167.0;166.0
11:40:27.598;-191.0;54.0
11:40:27.638;-46.0;187.0
11:40:27.678;-101.0;105.0
11:40:27.718;-48.0;110.0
11:40:27.758;-111.0;145.0
11:40:27.798;-83.0;109.0
11:40:27.838;-74.0;91.0
11:40:27.878;-74.0;194.0
11:40:27.918;0.0;142.0
11:40:27.958;-6.0;248.0
11:40:27.998;18.0;260.0
11:40:28.038;8.0;212.0
11:40:28.078;1436.0;2692.0
11:40:28.118;482.0;1322.0
11:40:28.158;-61.0;-371.0
11:40:28.198;71.0;-141.0
11:40:28.238;62.0;-71.0
11:40:28.278;158.0;-14.0
11:40:28.318;535.0;353.0
11:40:28.358;926.0;767.0
11:40:28.398;582.0;520.0
11:40:28.438;113.0;362.0
11:40:28.478;-176.0;205.0
11:40:28.518;-322.0;245.0
11:40:28.558;-369.0;170.0
11:40:28.598;-316.0;82.0
11:40:28.638;74.0;45.0
11:40:28.678;-1144.0;1070.0
11:40:28.718;-993.0;-518.0
11:40:28.758;-443.0;-299.0
11:40:28.798;-98.0;-98.0
11:40:28.838;58.0;-79.0
11:40:28.878;503.0;222.0
11:40:28.918;1056.0;799.0
11:40:28.958;927.0;690.0
11:40:28.998;398.0;321.0
11:40:29.038;91.0;75.0
11:40:29.078;-108.0;-103.0
11:40:29.118;-277.0;-181.0
11:40:29.158;-283.0;-38.0
11:40:29.198;-322.0;-211.0
11:40:27.781;-318.0;-439.0
11:40:27.821;-204.0;-259.0
11:40:27.861;-165.0;-194.0
11:40:27.901;57.0;-58.0
11:40:27.941;494.0;190.0
11:40:27.981;635.0;547.0
11:40:28.021;156.0;258.0
11:40:28.061;-27.0;73.0
11:40:28.101;-66.0;116.0
11:40:28.141;-179.0;68.0
11:40:28.181;-370.0;-126.0
11:40:28.221;-273.0;-299.0
11:40:28.261;-182.0;-102.0
11:40:28.301;843.0;2029.0
11:40:28.341;-136.0;760.0
11:40:28.381;-120.0;-516.0
11:40:28.421;-32.0;-374.0
11:40:28.461;-64.0;-414.0
11:40:28.501;-88.0;-415.0
11:40:28.541;352.0;457.0
11:40:28.581;608.0;708.0
11:40:28.621;312.0;295.0
11:40:28.661;-154.0;2.0
11:40:28.701;-164.0;59.0
11:40:28.741;-258.0;-126.0
11:40:28.781;-349.0;-380.0
11:40:28.821;-231.0;-165.0
11:40:28.861;-79.0;-127.0
11:40:28.901;-235.0;-364.0
11:40:28.941;-379.0;-720.0
11:40:28.981;-184.0;-397.0
11:40:29.021;33.0;-258.0
11:40:29.061;1435.0;19.0
11:40:29.101;1771.0;3754.0
11:40:29.141;579.0;1319.0
11:40:29.181;-163.0;-316.0
11:40:29.221;-537.0;-1197.0
11:40:29.261;-357.0;-1256.0
11:40:29.301;-201.0;-1195.0
11:40:29.341;-240.0;-750.0
11:40:29.381;-344.0;-559.0
11:40:29.421;-215.0;-391.0
11:40:29.461;-202.0;-261.0
11:40:29.501;-286.0;-362.0
11:40:29.541;-206.0;-284.0
11:40:29.581;-211.0;-290.0
11:40:29.621;-149.0;-323.0
11:40:29.661;-170.0;-184.0
11:40:29.701;459.0;63.0
11:40:29.741;-807.0;562.0
11:40:29.781;-628.0;-1403.0
11:40:29.821;-228.0;-742.0
11:40:29.861;68.0;-417.0
11:40:29.901;281.0;-367.0
11:40:29.941;672.0;70.0
11:40:29.981;1183.0;690.0
11:40:30.021;1046.0;460.0
11:40:30.061;492.0;-95.0
11:40:30.101;131.0;6.0
11:40:30.141;5.0;-224.0
11:40:30.181;-141.0;-412.0
11:40:30.221;-143.0;-254.0
11:40:30.261;-219.0;-295.0
11:40:30.301;-262.0;-353.0
11:40:30.341;-218.0;-198.0
11:40:30.381;-133.0;-104.0
11:40:30.421;894.0;1775.0
11:40:30.461;-56.0;587.0
11:40:30.501;-365.0;-855.0
11:40:30.541;-259.0;-664.0
11:40:30.581;-280.0;-809.0
11:40:30.621;-23.0;-396.0
11:40:30.661;385.0;52.0
11:40:30.701;729.0;182.0
11:40:30.741;498.0;138.0
11:40:30.781;41.0;-19.0
11:40:30.821;-226.0;-275.0
11:40:30.861;-378.0;-229.0
11:40:30.901;-443.0;-301.0
11:40:30.941;1091.0;2097.0
11:40:30.981;137.0;840.0
11:40:31.021;-636.0;-222.0
11:40:31.061;-481.0;-624.0
11:40:31.101;-258.0;-517.0
11:40:31.141;-83.0;-382.0
11:40:31.181;88.0;-41.0
11:40:31.221;474.0;312.0
11:40:31.261;237.0;153.0
11:40:31.301;-172.0;-316.0
11:40:31.341;-417.0;-346.0
11:40:31.381;-384.0;-286.0
11:40:31.421;-377.0;-336.0
11:40:31.461;-355.0;-250.0
11:40:31.501;-473.0;-340.0
11:40:31.541;-374.0;-258.0
11:40:31.581;-323.0;-195.0
11:40:31.621;-371.0;-302.0
11:40:31.661;-414.0;-403.0
11:40:31.701;-310.0;-198.0
11:40:31.741;-262.0;-211.0
11:40:28.812;-279.0;-38.0
11:40:28.852;-292.0;-308.0
11:40:28.892;-84.0;-433.0
11:40:28.932;206.0;-147.0
11:40:28.972;345.0;276.0
11:40:29.012;327.0;276.0
11:40:29.052;269.0;154.0
11:40:29.092;132.0;442.0
11:40:29.132;6.0;263.0
11:40:29.172;-44.0;52.0
11:40:29.212;1179.0;1941.0
11:40:29.252;238.0;1200.0
11:40:29.292;-191.0;-492.0
11:40:29.332;-235.0;-582.0
11:40:29.372;-63.0;-271.0
11:40:29.412;-29.0;-159.0
11:40:29.452;239.0;197.0
11:40:29.492;621.0;247.0
11:40:29.532;358.0;298.0
11:40:29.572;-105.0;-131.0
11:40:29.612;-256.0;-328.0
11:40:29.652;-352.0;-163.0
11:40:29.692;-236.0;19.0
11:40:29.732;433.0;673.0
11:40:29.772;-483.0;413.0
11:40:29.812;-400.0;-1212.0
11:40:29.852;-277.0;-658.0
11:40:29.892;-146.0;-652.0
11:40:29.932;135.0;-286.0
11:40:29.972;351.0;297.0
11:40:30.012;604.0;567.0
11:40:30.052;541.0;289.0
11:40:30.092;114.0;120.0
11:40:30.132;-172.0;28.0
11:40:30.172;-29.0;-199.0
11:40:30.212;-1235.0;541.0
11:40:30.252;-372.0;-856.0
11:40:30.292;-276.0;-643.0
11:40:30.332;-137.0;-325.0
11:40:30.372;60.0;-128.0
11:40:30.412;335.0;64.0
11:40:30.452;612.0;471.0
11:40:30.492;647.0;473.0
11:40:30.532;396.0;279.0
11:40:30.572;-10.0;-8.0
11:40:30.612;-115.0;-116.0
11:40:30.652;-155.0;-192.0
11:40:30.692;-202.0;-211.0
11:40:30.732;-205.0;-237.0
11:40:30.772;-89.0;-335.0
11:40:30.812;-89.0;-412.0
11:40:30.852;-143.0;-331.0
11:40:30.892;-179.0;-454.0
11:40:30.932;-223.0;-424.0
11:40:30.972;-112.0;-381.0
11:40:31.012;1112.0;1698.0
11:40:31.052;218.0;767.0
11:40:31.092;-9.0;-988.0
11:40:31.132;-35.0;-760.0
11:40:31.172;30.0;-846.0
11:40:31.212;200.0;-676.0
11:40:31.252;568.0;-62.0
11:40:31.292;867.0;195.0
11:40:31.332;687.0;-14.0
11:40:31.372;255.0;-56.0
11:40:31.412;8.0;-193.0
11:40:31.452;-131.0;-389.0
11:40:31.492;-69.0;-215.0
11:40:31.532;-122.0;-343.0
11:40:31.572;-113.0;-543.0
11:40:31.612;-187.0;-712.0
11:40:31.652;265.0;-461.0
11:40:31.692;1583.0;602.0
11:40:31.732;721.0;2661.0
11:40:31.772;-510.0;2717.0
11:40:31.812;-374.0;663.0
11:40:31.852;-481.0;-1349.0
11:40:31.892;-216.0;-2363.0
11:40:31.932;-60.0;-3118.0
11:40:31.972;183.0;-3423.0
11:40:32.012;349.0;-2356.0
11:40:32.052;83.0;-1327.0
11:40:32.092;6.0;-725.0
11:40:32.132;-185.0;-613.0
11:40:32.172;-173.0;-650.0
11:40:32.212;-78.0;-381.0
11:40:32.252;-39.0;-317.0
11:40:32.292;-101.0;-428.0
11:40:32.332;-103.0;-394.0
11:40:32.372;-96.0;-305.0
11:40:32.412;-76.0;-281.0
11:40:32.452;-112.0;-389.0
11:40:32.492;-190.0;-408.0
11:40:32.532;8.0;-44.0
11:40:32.572;85.0;11.0
11:40:32.612;33.0;-171.0
11:40:32.652;-47.0;-407.0
11:40:32.692;1269.0;2014.0
11:40:32.732;526.0;807.0
11:40:32.772;186.0;-693.0
11:40:31.266;81.0;-490.0
11:40:31.306;686.0;307.0
11:40:31.346;839.0;546.0
11:40:31.386;645.0;151.0
11:40:31.426;190.0;-218.0
11:40:31.466;-151.0;-199.0
11:40:31.506;-244.0;-240.0
11:40:31.546;-130.0;-428.0
11:40:31.586;27.0;-421.0
11:40:31.626;-48.0;-311.0
11:40:31.666;361.0;-166.0
11:40:31.706;-840.0;-139.0
11:40:31.746;-212.0;-1476.0
11:40:31.786;2.0;-887.0
11:40:31.826;130.0;-631.0
11:40:31.866;325.0;-355.0
11:40:31.906;475.0;93.0
11:40:31.946;951.0;660.0
11:40:31.986;905.0;523.0
11:40:32.026;414.0;296.0
11:40:32.066;31.0;-132.0
11:40:32.106;-157.0;-450.0
11:40:32.146;-221.0;-272.0
11:40:32.186;-189.0;-248.0
11:40:32.226;-24.0;-365.0
11:40:32.266;-96.0;-322.0
11:40:32.306;706.0;96.0
11:40:32.346;1709.0;1157.0
11:40:32.386;255.0;3443.0
11:40:32.426;-676.0;3201.0
11:40:32.466;-518.0;898.0
11:40:32.506;-323.0;-1034.0
11:40:32.546;-166.0;-2083.0
11:40:32.586;-23.0;-2595.0
11:40:32.626;176.0;-2987.0
11:40:32.666;360.0;-2005.0
11:40:32.706;121.0;-758.0
11:40:32.746;-63.0;-329.0
11:40:32.786;-106.0;-252.0
11:40:32.826;-55.0;-66.0
11:40:32.866;-70.0;168.0
11:40:32.906;-59.0;138.0
11:40:32.946;-175.0;231.0
11:40:32.986;-87.0;190.0
11:40:33.026;-71.0;339.0
11:40:33.066;-15.0;223.0
11:40:33.106;1251.0;3045.0
11:40:33.146;330.0;759.0
11:40:33.186;127.0;598.0
11:40:33.226;-29.0;75.0
11:40:33.266;3.0;-50.0
11:40:33.306;270.0;-35.0
11:40:33.346;683.0;492.0
11:40:33.386;774.0;643.0
11:40:33.426;339.0;185.0
11:40:33.466;-11.0;-19.0
11:40:33.506;183.0;329.0
11:40:33.546;-1288.0;323.0
11:40:33.586;-864.0;-681.0
11:40:33.626;-428.0;-300.0
11:40:33.666;-175.0;-189.0
11:40:33.706;139.0;-26.0
11:40:33.746;349.0;406.0
11:40:33.786;732.0;979.0
11:40:33.826;628.0;613.0
11:40:33.866;121.0;233.0
11:40:33.906;-237.0;213.0
11:40:33.946;-256.0;181.0
11:40:33.986;-144.0;15.0
11:40:34.026;-254.0;-33.0
11:40:34.066;-380.0;-101.0
11:40:34.106;490.0;1210.0
11:40:34.146;-383.0;779.0
11:40:34.186;-601.0;-1060.0
11:40:34.226;-478.0;-694.0
11:40:34.266;-271.0;-483.0
11:40:34.306;25.0;-158.0
11:40:34.346;325.0;233.0
11:40:34.386;567.0;540.0
11:40:34.426;368.0;316.0
11:40:34.466;10.0;311.0
11:40:34.506;-289.0;78.0
11:40:34.546;-404.0;-84.0
11:40:34.586;-494.0;-151.0
11:40:34.626;-55.0;-11.0
11:40:34.666;-1140.0;714.0
11:40:34.706;-687.0;-643.0
11:40:34.746;-513.0;-584.0
11:40:34.786;-240.0;-191.0
11:40:34.826;-63.0;-118.0
11:40:34.866;273.0;253.0
11:40:34.906;664.0;794.0
11:40:34.946;628.0;755.0
11:40:34.986;169.0;221.0
11:40:35.026;-183.0;-59.0
11:40:35.066;-215.0;141.0
11:40:35.106;-178.0;64.0
11:40:35.146;-183.0;-210.0
11:40:35.186;-102.0;0.0
11:40:35.226;1961.0;1553.0
11:40:32.465;697.0;1724.0
11:40:32.505;124.0;164.0
11:40:32.545;-175.0;-710.0
11:40:32.585;-260.0;-395.0
11:40:32.625;-268.0;-161.0
11:40:32.665;-217.0;-169.0
11:40:32.705;-339.0;-253.0
11:40:32.745;-351.0;-263.0
11:40:32.785;-257.0;-185.0
11:40:32.825;-232.0;-289.0
11:40:32.865;836.0;56.0
11:40:32.905;1554.0;1554.0
11:40:32.945;-373.0;4044.0
11:40:32.985;-320.0;2778.0
11:40:33.025;-392.0;235.0
11:40:33.065;-366.0;-1353.0
11:40:33.105;-272.0;-2410.0
11:40:33.145;-228.0;-3136.0
11:40:33.185;162.0;-2809.0
11:40:33.225;183.0;-1460.0
11:40:33.265;-77.0;-840.0
11:40:33.305;-259.0;-384.0
11:40:33.345;-101.0;-284.0
11:40:33.385;-70.0;-167.0
11:40:33.425;-227.0;-194.0
11:40:33.465;-271.0;31.0
11:40:33.505;-164.0;-17.0
11:40:33.545;-135.0;-48.0
11:40:33.585;-207.0;-113.0
11:40:33.625;916.0;1864.0
11:40:33.665;130.0;1048.0
11:40:33.705;-52.0;-771.0
11:40:33.745;18.0;-353.0
11:40:33.785;-37.0;-197.0
11:40:33.825;127.0;-104.0
11:40:33.865;599.0;548.0
11:40:33.905;916.0;946.0
11:40:33.945;567.0;676.0
11:40:33.985;203.0;460.0
11:40:34.025;-25.0;289.0
11:40:34.065;-262.0;204.0
11:40:34.105;-382.0;-158.0
11:40:34.145;-215.0;-28.0
11:40:34.185;-273.0;92.0
11:40:34.225;486.0;329.0
11:40:34.265;1727.0;1648.0
11:40:34.305;472.0;4160.0
11:40:34.345;-161.0;2867.0
11:40:34.385;-588.0;471.0
11:40:34.425;-674.0;-1061.0
11:40:34.465;-617.0;-2249.0
11:40:34.505;-571.0;-2881.0
11:40:34.545;-229.0;-2585.0
11:40:34.585;163.0;-1217.0
11:40:34.625;-24.0;-576.0
11:40:34.665;-232.0;-381.0
11:40:34.705;-217.0;-88.0
11:40:34.745;-147.0;-155.0
11:40:34.785;-302.0;-273.0
11:40:34.825;-331.0;-71.0
11:40:34.865;-302.0;-79.0
11:40:34.905;-265.0;-167.0
11:40:34.945;-394.0;-305.0
11:40:34.985;932.0;342.0
11:40:35.025;1653.0;1938.0
11:40:35.065;-188.0;4025.0
11:40:35.105;-225.0;2967.0
11:40:35.145;-454.0;419.0
11:40:35.185;-535.0;-1418.0
11:40:35.225;-411.0;-2329.0
11:40:35.265;-319.0;-3085.0
11:40:35.305;24.0;-2953.0
11:40:35.345;75.0;-1230.0
11:40:35.385;-155.0;-427.0
11:40:35.425;-335.0;-209.0
11:40:35.465;-300.0;-221.0
11:40:35.505;-378.0;57.0
11:40:35.545;-393.0;112.0
11:40:35.585;-443.0;12.0
11:40:35.625;-280.0;114.0
11:40:35.665;-259.0;334.0
11:40:35.705;-291.0;229.0
11:40:35.745;-322.0;-9.0
11:40:35.785;-220.0;34.0
11:40:35.825;876.0;769.0
11:40:35.865;1465.0;2259.0
11:40:35.905;-415.0;4497.0
11:40:35.945;-544.0;3349.0
11:40:35.985;-310.0;1025.0
11:40:36.025;-263.0;-748.0
11:40:36.065;-151.0;-2077.0
11:40:36.105;-3.0;-3107.0
11:40:36.145;267.0;-2931.0
11:40:36.185;275.0;-1474.0
11:40:36.225;12.0;-587.0
11:40:36.265;-6.0;-208.0
11:40:36.305;-105.0;144.0
11:40:36.345;-165.0;192.0
11:40:36.385;-180.0;8.0
11:40:36.425;-205.0;194.0
11:40:38.508;661.0;744.0
11:40:38.548;386.0;1376.0
11:40:38.588;37.0;28.0
11:40:38.628;-52.0;-1206.0
11:40:38.668;15.0;-1718.0
11:40:38.708;98.0;-2010.0
11:40:38.748;415.0;-1421.0
11:40:38.788;270.0;-367.0
11:40:38.828;-123.0;469.0
11:40:38.868;-264.0;662.0
11:40:38.908;-311.0;563.0
11:40:38.948;-224.0;585.0
11:40:38.988;176.0;861.0
11:40:39.028;1225.0;1789.0
11:40:39.068;374.0;3988.0
11:40:39.108;-910.0;3968.0
11:40:39.148;-544.0;1862.0
11:40:39.188;-331.0;-65.0
11:40:39.228;-136.0;-1208.0
11:40:39.268;-16.0;-2066.0
11:40:39.308;224.0;-2349.0
11:40:39.348;368.0;-1240.0
11:40:39.388;141.0;-239.0
11:40:39.428;2.0;288.0
11:40:39.468;-95.0;419.0
11:40:39.508;-149.0;214.0
11:40:39.548;-223.0;371.0
11:40:39.588;-193.0;380.0
11:40:39.628;-195.0;272.0
11:40:39.668;-119.0;262.0
11:40:39.708;-235.0;243.0
11:40:39.748;42.0;97.0
11:40:39.788;-794.0;1276.0
11:40:39.828;-601.0;28.0
11:40:39.868;-576.0;-68.0
11:40:39.908;-208.0;-48.0
11:40:39.948;23.0;-94.0
11:40:39.988;464.0;233.0
11:40:40.028;920.0;849.0
11:40:40.068;911.0;677.0
11:40:40.108;507.0;394.0
11:40:40.148;85.0;273.0
11:40:40.188;32.0;-36.0
11:40:40.228;-1364.0;475.0
11:40:40.268;-889.0;-543.0
11:40:40.308;-463.0;-431.0
11:40:40.348;-161.0;-138.0
11:40:40.388;86.0;-193.0
11:40:40.428;398.0;122.0
11:40:40.468;799.0;751.0
11:40:40.508;663.0;520.0
11:40:40.548;380.0;262.0
11:40:40.588;54.0;204.0
11:40:40.628;-157.0;10.0
11:40:40.668;-160.0;-148.0
11:40:40.708;-118.0;-90.0
11:40:40.748;-218.0;-29.0
11:40:40.788;-377.0;-170.0
11:40:40.828;-205.0;-141.0
11:40:40.868;1422.0;2633.0
11:40:40.908;404.0;1228.0
11:40:40.948;-455.0;-77.0
11:40:40.988;-379.0;-242.0
11:40:41.028;-341.0;-353.0
11:40:41.068;-3.0;-115.0
11:40:41.108;395.0;473.0
11:40:41.148;590.0;584.0
11:40:41.188;215.0;194.0
11:40:41.228;-132.0;21.0
11:40:41.268;-62.0;-262.0
11:40:41.308;-1371.0;1132.0
11:40:41.348;-815.0;-32.0
11:40:41.388;-352.0;-132.0
11:40:41.428;-262.0;-359.0
11:40:41.468;-115.0;-243.0
11:40:41.508;161.0;-161.0
11:40:41.548;581.0;142.0
11:40:41.588;600.0;353.0
11:40:41.628;156.0;193.0
11:40:41.668;-81.0;-102.0
11:40:41.708;-151.0;-19.0
11:40:41.748;-159.0;-83.0
11:40:41.788;-174.0;50.0
11:40:41.828;-115.0;-35.0
11:40:41.868;1323.0;591.0
11:40:41.908;2376.0;4192.0
11:40:41.948;592.0;2197.0
11:40:41.988;-150.0;416.0
11:40:42.028;-707.0;-897.0
11:40:42.068;-771.0;-1440.0
11:40:42.108;-657.0;-1587.0
11:40:42.148;-690.0;-1179.0
11:40:42.188;-520.0;-586.0
11:40:42.228;-387.0;-281.0
11:40:42.268;-316.0;-41.0
11:40:42.308;-379.0;111.0
11:40:42.348;-389.0;43.0
11:40:42.388;-415.0;-186.0
11:40:42.428;-296.0;112.0
11:40:42.468;611.0;512.0
11:40:39.546;1900.0;1536.0
11:40:39.586;279.0;-27.0
11:40:39.626;-339.0;-888.0
11:40:39.666;-585.0;-1188.0
11:40:39.706;-598.0;-605.0
11:40:39.746;-587.0;-281.0
11:40:39.786;-542.0;-56.0
11:40:39.826;-335.0;276.0
11:40:39.866;-320.0;125.0
11:40:39.906;-416.0;-95.0
11:40:39.946;-269.0;133.0
11:40:39.986;-183.0;166.0
11:40:40.026;-291.0;-74.0
11:40:40.066;-169.0;-18.0
11:40:40.106;-271.0;137.0
11:40:40.146;-215.0;86.0
11:40:40.186;-256.0;-94.0
11:40:40.226;-196.0;-107.0
11:40:40.266;-258.0;-15.0
11:40:40.306;-83.0;0.0
11:40:40.346;1737.0;1893.0
11:40:40.386;1481.0;2302.0
11:40:40.426;388.0;667.0
11:40:40.466;-123.0;-55.0
11:40:40.506;-418.0;-604.0
11:40:40.546;-555.0;-826.0
11:40:40.586;-480.0;-730.0
11:40:40.626;-104.0;-77.0
11:40:40.666;-368.0;-45.0
11:40:40.706;-452.0;-71.0
11:40:40.746;-600.0;-147.0
11:40:40.786;-430.0;118.0
11:40:40.826;-357.0;190.0
11:40:40.866;-318.0;32.0
11:40:40.906;-287.0;-293.0
11:40:40.946;-99.0;87.0
11:40:40.986;-7.0;144.0
11:40:41.026;280.0;110.0
11:40:41.066;-868.0;685.0
11:40:41.106;-662.0;-256.0
11:40:41.146;-243.0;-192.0
11:40:41.186;106.0;-267.0
11:40:41.226;263.0;-302.0
11:40:41.266;831.0;354.0
11:40:41.306;1285.0;764.0
11:40:41.346;1109.0;614.0
11:40:41.386;178.0;235.0
11:40:41.426;-78.0;14.0
11:40:41.466;-481.0;-342.0
11:40:41.506;-449.0;-439.0
11:40:41.546;-440.0;-247.0
11:40:41.586;-797.0;-347.0
11:40:41.626;465.0;1907.0
11:40:41.666;-324.0;874.0
11:40:41.706;-970.0;-612.0
11:40:41.746;-581.0;-645.0
11:40:41.786;-382.0;-716.0
11:40:41.826;17.0;-305.0
11:40:41.866;642.0;199.0
11:40:41.906;826.0;365.0
11:40:41.946;438.0;192.0
11:40:41.986;115.0;19.0
11:40:42.026;-113.0;-149.0
11:40:42.066;-163.0;-186.0
11:40:42.106;-200.0;-43.0
11:40:42.146;-111.0;-36.0
11:40:42.186;-200.0;-57.0
11:40:42.226;-395.0;-105.0
11:40:42.266;-307.0;66.0
11:40:42.306;119.0;69.0
11:40:42.346;-1042.0;547.0
11:40:42.386;-717.0;-686.0
11:40:42.426;-306.0;-228.0
11:40:42.466;23.0;-162.0
11:40:42.506;273.0;-141.0
11:40:42.546;728.0;297.0
11:40:42.586;1169.0;787.0
11:40:42.626;983.0;597.0
11:40:42.666;605.0;491.0
11:40:42.706;225.0;294.0
11:40:42.746;-25.0;199.0
11:40:42.786;-78.0;73.0
11:40:42.826;-123.0;66.0
11:40:42.866;-153.0;133.0
11:40:42.906;-52.0;192.0
11:40:42.946;-150.0;-90.0
11:40:42.986;-203.0;-10.0
11:40:43.026;-181.0;-42.0
11:40:43.066;-170.0;62.0
11:40:43.106;-90.0;-33.0
11:40:43.146;243.0;-37.0
11:40:43.186;-423.0;1383.0
11:40:43.226;1120.0;633.0
11:40:43.266;601.0;-104.0
11:40:43.306;281.0;-223.0
11:40:43.346;234.0;-157.0
11:40:43.386;314.0;-252.0
11:40:43.426;516.0;123.0
11:40:43.466;526.0;290.0
11:40:43.506;287.0;81.0
11:40:43.625;156.0;-13.0
11:40:43.665;374.0;-1046.0
11:40:43.705;625.0;-1297.0
11:40:43.745;911.0;-1171.0
11:40:43.785;1295.0;-767.0
11:40:43.825;1370.0;-968.0
11:40:43.865;790.0;-1037.0
11:40:43.905;440.0;-1076.0
11:40:43.945;176.0;-1232.0
11:40:43.985;116.0;-1339.0
11:40:44.025;102.0;-1099.0
11:40:44.065;139.0;-1065.0
11:40:44.105;156.0;-1035.0
11:40:44.145;81.0;-1169.0
11:40:44.185;19.0;-833.0
11:40:44.225;89.0;-727.0
11:40:44.265;680.0;-199.0
11:40:44.305;-702.0;59.0
11:40:44.345;-378.0;-1821.0
11:40:44.385;-34.0;-1271.0
11:40:44.425;230.0;-895.0
11:40:44.465;429.0;-439.0
11:40:44.505;817.0;-31.0
11:40:44.545;1174.0;271.0
11:40:44.585;1078.0;187.0
11:40:44.625;575.0;145.0
11:40:44.665;211.0;-83.0
11:40:44.705;38.0;-278.0
11:40:44.745;-67.0;-94.0
11:40:44.785;2.0;-195.0
11:40:44.825;36.0;-397.0
11:40:44.865;1688.0;2093.0
11:40:44.905;644.0;546.0
11:40:44.945;-113.0;-315.0
11:40:44.985;-78.0;-760.0
11:40:45.025;43.0;-640.0
11:40:45.065;341.0;-388.0
11:40:45.105;714.0;-30.0
11:40:45.145;875.0;53.0
11:40:45.185;428.0;-186.0
11:40:45.225;135.0;-337.0
11:40:45.265;-115.0;-443.0
11:40:45.305;-132.0;-566.0
11:40:45.345;1297.0;1873.0
11:40:45.385;311.0;278.0
11:40:45.425;-583.0;-481.0
11:40:45.465;-361.0;-856.0
11:40:45.505;-159.0;-1242.0
11:40:45.545;-3.0;-935.0
11:40:45.585;462.0;-428.0
11:40:45.625;679.0;-424.0
11:40:45.665;365.0;-385.0
11:40:45.705;87.0;-519.0
11:40:45.745;135.0;-641.0
11:40:45.785;20.0;-616.0
11:40:45.825;44.0;-536.0
11:40:45.865;94.0;-560.0
11:40:45.905;-5.0;-648.0
11:40:45.945;-3.0;-628.0
11:40:45.985;247.0;-770.0
11:40:46.025;119.0;1137.0
11:40:46.065;44.0;-176.0
11:40:46.105;-358.0;-327.0
11:40:46.145;-60.0;-568.0
11:40:46.185;278.0;-595.0
11:40:46.225;436.0;-233.0
11:40:46.265;851.0;256.0
11:40:46.305;838.0;114.0
11:40:46.345;345.0;-183.0
11:40:46.385;59.0;-272.0
11:40:46.425;-165.0;-236.0
11:40:46.465;-264.0;-293.0
11:40:46.505;-385.0;-323.0
11:40:46.545;-342.0;-361.0
11:40:46.585;-211.0;-133.0
11:40:46.625;-337.0;-254.0
11:40:46.665;155.0;82.0
11:40:46.705;162.0;623.0
11:40:46.745;249.0;138.0
11:40:46.785;-234.0;-255.0
11:40:46.825;-500.0;-567.0
11:40:46.865;-391.0;-617.0
11:40:46.905;-173.0;-311.0
11:40:46.945;25.0;-91.0
11:40:46.985;-189.0;-231.0
11:40:47.025;-279.0;-240.0
11:40:47.065;-320.0;-156.0
11:40:47.105;-328.0;-165.0
11:40:47.145;-255.0;-151.0
11:40:47.185;-380.0;-199.0
11:40:47.225;-458.0;-508.0
11:40:47.265;-243.0;-388.0
11:40:47.305;-134.0;-262.0
11:40:47.345;-221.0;-225.0
11:40:47.385;-6.0;-233.0
11:40:47.425;2776.0;2962.0
11:40:47.465;1209.0;1529.0
11:40:47.505;183.0;274.0
11:40:47.545;-378.0;-592.0
11:40:47.585;-359.0;-860.0
11:40:57.530;-304.0;-818.0
11:40:57.570;-300.0;-420.0
11:40:57.610;-339.0;-419.0
11:40:57.650;-444.0;-463.0
11:40:57.690;-408.0;-231.0
11:40:57.730;-280.0;-186.0
11:40:57.770;-171.0;-260.0
11:40:57.810;-301.0;-265.0
11:40:57.850;1046.0;2064.0
11:40:57.890;336.0;846.0
11:40:57.930;-26.0;-741.0
11:40:57.970;-323.0;-626.0
11:40:58.010;-223.0;-677.0
11:40:58.050;144.0;-261.0
11:40:58.090;-92.0;21.0
11:40:58.130;637.0;290.0
11:40:58.170;182.0;200.0
11:40:58.210;-248.0;-178.0
11:40:58.250;-918.0;-493.0
11:40:58.290;-551.0;-431.0
11:40:58.330;-459.0;-466.0
11:40:58.370;-600.0;-706.0
11:40:58.410;-279.0;-421.0
11:40:58.450;-409.0;-645.0
11:40:58.490;-327.0;-836.0
11:40:58.530;1268.0;1349.0
11:40:58.570;1564.0;1026.0
11:40:58.610;786.0;-66.0
11:40:58.650;171.0;-742.0
11:40:58.690;-80.0;-891.0
11:40:58.730;-108.0;-1012.0
11:40:58.770;22.0;-806.0
11:40:58.810;377.0;-402.0
11:40:58.850;199.0;-449.0
11:40:58.890;-2.0;-663.0
11:40:58.930;-53.0;-816.0
11:40:58.970;-103.0;-601.0
11:40:59.010;-27.0;-497.0
11:40:59.050;-125.0;-744.0
11:40:59.090;-80.0;-710.0
11:40:59.130;-164.0;-659.0
11:40:59.170;-28.0;-686.0
11:40:59.210;1341.0;72.0
11:40:59.250;1169.0;2042.0
11:40:59.290;-458.0;2941.0
11:40:59.330;-159.0;1264.0
11:40:59.370;-310.0;-788.0
11:40:59.410;-413.0;-1981.0
11:40:59.450;-241.0;-2783.0
11:40:59.490;39.0;-3036.0
11:40:59.530;265.0;-2566.0
11:40:59.570;213.0;-1385.0
11:40:59.610;-14.0;-641.0
11:40:59.650;-62.0;-348.0
11:40:59.690;-191.0;-364.0
11:40:59.730;-252.0;-453.0
11:40:59.770;-159.0;-402.0
11:40:59.810;516.0;-78.0
11:40:59.850;1686.0;860.0
11:40:59.890;623.0;3424.0
11:40:59.930;-410.0;2979.0
11:40:59.970;-446.0;649.0
11:41:00.010;-527.0;-893.0
11:41:00.050;-575.0;-2195.0
11:41:00.090;-347.0;-3055.0
11:41:00.130;-38.0;-2987.0
11:41:00.170;209.0;-1736.0
11:41:00.210;126.0;-744.0
11:41:00.250;-48.0;-274.0
11:41:00.290;-200.0;-304.0
11:41:00.330;-120.0;-50.0
11:41:00.370;-180.0;-105.0
11:41:00.410;-202.0;-309.0
11:41:00.450;-118.0;-6.0
11:41:00.490;-35.0;156.0
11:41:00.530;-21.0;14.0
11:41:00.570;-14.0;33.0
11:41:00.610;-70.0;125.0
11:41:00.650;-79.0;200.0
11:41:00.690;-27.0;215.0
11:41:00.730;948.0;444.0
11:41:00.770;2740.0;2800.0
11:41:00.810;700.0;1945.0
11:41:00.850;98.0;460.0
11:41:00.890;-158.0;-402.0
11:41:00.930;-449.0;-1001.0
11:41:00.970;-471.0;-1219.0
11:41:01.010;-355.0;-1103.0
11:41:01.050;-94.0;-288.0
11:41:01.090;-131.0;-180.0
11:41:01.130;-183.0;-38.0
11:41:01.170;-111.0;130.0
11:41:01.210;-25.0;297.0
11:41:01.250;42.0;222.0
11:41:01.290;-49.0;129.0
11:41:01.330;18.0;45.0
11:41:01.370;149.0;157.0
11:41:01.410;86.0;176.0
11:41:01.450;59.0;12.0
11:41:01.490;67.0;82.0
11:40:58.928;163.0;113.0
11:40:58.968;529.0;218.0
11:40:59.008;780.0;241.0
11:40:59.048;1216.0;649.0
11:40:59.088;1488.0;701.0
11:40:59.128;1079.0;602.0
11:40:59.168;653.0;433.0
11:40:59.208;366.0;225.0
11:40:59.248;395.0;-64.0
11:40:59.288;272.0;-99.0
11:40:59.328;206.0;-219.0
11:40:59.368;235.0;-326.0
11:40:59.408;1561.0;265.0
11:40:59.448;1596.0;2015.0
11:40:59.488;777.0;470.0
11:40:59.528;443.0;-220.0
11:40:59.568;334.0;-681.0
11:40:59.608;205.0;-1100.0
11:40:59.648;330.0;-1004.0
11:40:59.688;727.0;-474.0
11:40:59.728;816.0;-166.0
11:40:59.768;591.0;-257.0
11:40:59.808;440.0;-474.0
11:40:59.848;483.0;-385.0
11:40:59.888;553.0;-293.0
11:40:59.928;471.0;-426.0
11:40:59.968;427.0;-645.0
11:41:00.008;631.0;-468.0
11:41:00.048;2132.0;44.0
11:41:00.088;3556.0;4022.0
11:41:00.128;1650.0;1245.0
11:41:00.168;745.0;-289.0
11:41:00.208;280.0;-1159.0
11:41:00.248;10.0;-1756.0
11:41:00.288;76.0;-1648.0
11:41:00.328;238.0;-988.0
11:41:00.368;286.0;-642.0
11:41:00.408;241.0;-677.0
11:41:00.448;249.0;-501.0
11:41:00.488;228.0;-376.0
11:41:00.528;179.0;-591.0
11:41:00.568;129.0;-875.0
11:41:00.608;201.0;-679.0
11:41:00.648;383.0;-382.0
11:41:00.688;405.0;-297.0
11:41:00.728;561.0;-591.0
11:41:00.768;4.0;1238.0
11:41:00.808;8.0;-277.0
11:41:00.848;-135.0;-554.0
11:41:00.888;149.0;-364.0
11:41:00.928;440.0;-310.0
11:41:00.968;820.0;-155.0
11:41:01.008;1088.0;119.0
11:41:01.048;1040.0;219.0
11:41:01.088;644.0;-77.0
11:41:01.128;343.0;-310.0
11:41:01.168;122.0;-347.0
11:41:01.208;-95.0;-400.0
11:41:01.248;-89.0;-392.0
11:41:01.288;-53.0;-428.0
11:41:01.328;-126.0;-324.0
11:41:01.368;-178.0;-281.0
11:41:01.408;-139.0;-382.0
11:41:01.448;-116.0;-483.0
11:41:01.488;-192.0;-314.0
11:41:01.528;-178.0;-212.0
11:41:01.568;-164.0;-202.0
11:41:01.608;-99.0;-390.0
11:41:01.648;1309.0;2498.0
11:41:01.688;388.0;590.0
11:41:01.728;-316.0;-341.0
11:41:01.768;-276.0;-683.0
11:41:01.808;-114.0;-650.0
11:41:01.848;132.0;-608.0
11:41:01.888;530.0;-289.0
11:41:01.928;780.0;15.0
11:41:01.968;450.0;-122.0
11:41:02.008;-53.0;-393.0
11:41:02.048;-216.0;-303.0
11:41:02.088;-400.0;-335.0
11:41:02.128;-479.0;-457.0
11:41:02.168;-292.0;-584.0
11:41:02.208;975.0;240.0
11:41:02.248;767.0;2319.0
11:41:02.288;-796.0;3062.0
11:41:02.328;-370.0;1623.0
11:41:02.368;-562.0;-450.0
11:41:02.408;-558.0;-1737.0
11:41:02.448;-432.0;-2699.0
11:41:02.488;-95.0;-2792.0
11:41:02.528;193.0;-2204.0
11:41:02.568;84.0;-943.0
11:41:02.608;-192.0;-251.0
11:41:02.648;-353.0;65.0
11:41:02.688;-456.0;25.0
11:41:02.728;-327.0;-115.0
11:41:02.768;820.0;744.0
11:41:02.808;547.0;2699.0
11:41:02.848;-1141.0;3849.0
11:41:02.888;-593.0;1848.0
11:41:00.605;-544.0;-177.0
11:41:00.645;-964.0;-553.0
11:41:00.685;-1160.0;-953.0
11:41:00.725;-1160.0;-1473.0
11:41:00.765;-898.0;-1792.0
11:41:00.805;-441.0;-1452.0
11:41:00.845;-284.0;-161.0
11:41:00.885;-455.0;360.0
11:41:00.925;-548.0;696.0
11:41:00.965;-484.0;767.0
11:41:01.005;-446.0;725.0
11:41:01.045;-516.0;723.0
11:41:01.085;-522.0;593.0
11:41:01.125;647.0;916.0
11:41:01.165;2166.0;2524.0
11:41:01.205;211.0;5004.0
11:41:01.245;-569.0;3802.0
11:41:01.285;-630.0;1212.0
11:41:01.325;-583.0;-311.0
11:41:01.365;-615.0;-1566.0
11:41:01.405;-546.0;-2591.0
11:41:01.445;-141.0;-2471.0
11:41:01.485;42.0;-1034.0
11:41:01.525;-150.0;-295.0
11:41:01.565;-422.0;-131.0
11:41:01.605;-383.0;239.0
11:41:01.645;-370.0;305.0
11:41:01.685;-305.0;260.0
11:41:01.725;-426.0;46.0
11:41:01.765;-353.0;329.0
11:41:01.805;-311.0;351.0
11:41:01.845;-206.0;355.0
11:41:01.885;-245.0;469.0
11:41:01.925;-300.0;407.0
11:41:01.965;-196.0;189.0
11:41:02.005;1102.0;2714.0
11:41:02.045;189.0;991.0
11:41:02.085;-366.0;452.0
11:41:02.125;-286.0;37.0
11:41:02.165;-194.0;4.0
11:41:02.205;139.0;354.0
11:41:02.245;430.0;805.0
11:41:02.285;612.0;645.0
11:41:02.325;319.0;427.0
11:41:02.365;80.0;440.0
11:41:02.405;2.0;202.0
11:41:02.445;-539.0;1926.0
11:41:02.485;-277.0;385.0
11:41:02.525;-49.0;-17.0
11:41:02.565;64.0;-265.0
11:41:02.605;139.0;-211.0
11:41:02.645;398.0;-28.0
11:41:02.685;824.0;458.0
11:41:02.725;909.0;599.0
11:41:02.765;457.0;238.0
11:41:02.805;170.0;30.0
11:41:02.845;85.0;-215.0
11:41:02.885;2.0;-231.0
11:41:02.925;-109.0;-324.0
11:41:02.965;-168.0;-333.0
11:41:03.005;-16.0;-194.0
11:41:03.045;-72.0;-200.0
11:41:03.085;-95.0;-279.0
11:41:03.125;-152.0;-320.0
11:41:03.165;-78.0;-266.0
11:41:03.205;186.0;-413.0
11:41:03.245;-828.0;392.0
11:41:03.285;-454.0;-653.0
11:41:03.325;-283.0;-615.0
11:41:03.365;110.0;-625.0
11:41:03.405;446.0;-361.0
11:41:03.445;686.0;-141.0
11:41:03.485;1183.0;210.0
11:41:03.525;1223.0;452.0
11:41:03.565;748.0;298.0
11:41:03.605;328.0;-103.0
11:41:03.645;296.0;-202.0
11:41:03.685;249.0;-82.0
11:41:03.725;53.0;-107.0
11:41:03.765;40.0;-277.0
11:41:03.805;171.0;-94.0
11:41:03.845;1137.0;268.0
11:41:03.885;1929.0;1565.0
11:41:03.925;452.0;3967.0
11:41:03.965;206.0;2787.0
11:41:04.005;-160.0;487.0
11:41:04.045;-463.0;-1085.0
11:41:04.085;-311.0;-2119.0
11:41:04.125;-116.0;-2358.0
11:41:04.165;149.0;-2248.0
11:41:04.205;169.0;-1086.0
11:41:04.245;112.0;-471.0
11:41:04.285;102.0;-40.0
11:41:04.325;146.0;107.0
11:41:04.365;-9.0;1.0
11:41:04.405;-67.0;18.0
11:41:04.445;73.0;66.0
11:41:04.485;70.0;79.0
11:41:04.525;-119.0;-11.0
11:41:04.565;295.0;151.0
11:41:02.470;-551.0;1195.0
11:41:02.510;50.0;642.0
11:41:02.550;559.0;336.0
11:41:02.590;805.0;479.0
11:41:02.630;1031.0;926.0
11:41:02.670;968.0;713.0
11:41:02.710;613.0;284.0
11:41:02.750;66.0;-37.0
11:41:02.790;-127.0;122.0
11:41:02.830;-25.0;74.0
11:41:02.870;-16.0;-192.0
11:41:02.910;-244.0;-120.0
11:41:02.950;-176.0;-88.0
11:41:02.990;2068.0;2825.0
11:41:03.030;1651.0;2120.0
11:41:03.070;371.0;566.0
11:41:03.110;-224.0;-267.0
11:41:03.150;-345.0;-584.0
11:41:03.190;-270.0;-602.0
11:41:03.230;-35.0;-129.0
11:41:03.270;-115.0;-128.0
11:41:03.310;-254.0;-364.0
11:41:03.350;-425.0;-189.0
11:41:03.390;-469.0;-146.0
11:41:03.430;-401.0;-304.0
11:41:03.470;-225.0;-210.0
11:41:03.510;-269.0;-186.0
11:41:03.550;-313.0;-270.0
11:41:03.590;-244.0;-109.0
11:41:03.630;1276.0;2422.0
11:41:03.670;432.0;1040.0
11:41:03.710;522.0;100.0
11:41:03.750;41.0;-297.0
11:41:03.790;-212.0;-424.0
11:41:03.830;-210.0;-253.0
11:41:03.870;101.0;163.0
11:41:03.910;303.0;327.0
11:41:03.950;-153.0;36.0
11:41:03.990;-403.0;-24.0
11:41:04.030;-528.0;-104.0
11:41:04.070;-447.0;-42.0
11:41:04.110;-624.0;-157.0
11:41:04.150;-543.0;-215.0
11:41:04.190;-450.0;-209.0
11:41:04.230;-540.0;-88.0
11:41:04.270;-581.0;-252.0
11:41:04.310;-383.0;-232.0
11:41:04.350;-265.0;24.0
11:41:04.390;420.0;999.0
11:41:04.430;-515.0;923.0
11:41:04.470;133.0;-719.0
11:41:04.510;167.0;-288.0
11:41:04.550;-108.0;-60.0
11:41:04.590;-106.0;79.0
11:41:04.630;237.0;244.0
11:41:04.670;715.0;832.0
11:41:04.710;333.0;531.0
11:41:04.750;-22.0;408.0
11:41:04.790;-246.0;307.0
11:41:04.830;-396.0;203.0
11:41:04.870;-446.0;238.0
11:41:04.910;-463.0;270.0
11:41:04.950;-402.0;221.0
11:41:04.990;99.0;482.0
11:41:05.030;-1098.0;1031.0
11:41:05.070;-901.0;-476.0
11:41:05.110;-596.0;-219.0
11:41:05.150;-341.0;-82.0
11:41:05.190;-207.0;-6.0
11:41:05.230;225.0;233.0
11:41:05.270;805.0;951.0
11:41:05.310;702.0;877.0
11:41:05.350;213.0;456.0
11:41:05.390;-134.0;259.0
11:41:05.430;-338.0;121.0
11:41:05.470;-389.0;194.0
11:41:05.510;-360.0;296.0
11:41:05.550;533.0;1640.0
11:41:05.590;-597.0;1100.0
11:41:05.630;-741.0;-440.0
11:41:05.670;-490.0;-376.0
11:41:05.710;-271.0;-252.0
11:41:05.750;-10.0;150.0
11:41:05.790;436.0;595.0
11:41:05.830;820.0;727.0
11:41:05.870;542.0;735.0
11:41:05.910;-61.0;558.0
11:41:05.950;-337.0;237.0
11:41:05.990;-305.0;26.0
11:41:06.030;-400.0;168.0
11:41:06.070;-374.0;119.0
11:41:06.110;-362.0;62.0
11:41:06.150;-417.0;-154.0
11:41:06.190;-381.0;-35.0
11:41:06.230;-339.0;1.0
11:41:06.270;-271.0;-25.0
11:41:06.310;-239.0;-73.0
11:41:06.350;385.0;844.0
11:41:06.390;-882.0;882.0
11:41:06.430;-1181.0;-1071.0
11:41:08.750;-415.0;-477.0
11:41:08.790;676.0;554.0
11:41:08.830;838.0;696.0
11:41:08.870;500.0;570.0
11:41:08.910;146.0;357.0
11:41:08.950;-44.0;261.0
11:41:08.990;-118.0;211.0
11:41:09.030;-238.0;99.0
11:41:09.070;-228.0;-18.0
11:41:09.110;-221.0;91.0
11:41:09.150;-216.0;198.0
11:41:09.190;-296.0;-26.0
11:41:09.230;-300.0;-37.0
11:41:09.270;-292.0;17.0
11:41:09.310;1032.0;886.0
11:41:09.350;1080.0;2037.0
11:41:09.390;204.0;753.0
11:41:09.430;-337.0;-237.0
11:41:09.470;-455.0;-447.0
11:41:09.510;-558.0;-588.0
11:41:09.550;-373.0;-490.0
11:41:09.590;-76.0;90.0
11:41:09.630;-174.0;114.0
11:41:09.670;-317.0;3.0
11:41:09.710;-291.0;58.0
11:41:09.750;-330.0;-18.0
11:41:09.790;-362.0;-169.0
11:41:09.830;-229.0;-121.0
11:41:09.870;-275.0;-308.0
11:41:09.910;-368.0;-270.0
11:41:09.950;-167.0;132.0
11:41:09.990;-105.0;-6.0
11:41:10.030;-207.0;-51.0
11:41:10.070;-142.0;6.0
11:41:10.110;-37.0;20.0
11:41:10.150;1313.0;2970.0
11:41:10.190;364.0;878.0
11:41:10.230;-459.0;84.0
11:41:10.270;-141.0;-159.0
11:41:10.310;-109.0;-246.0
11:41:10.350;93.0;-193.0
11:41:10.390;374.0;264.0
11:41:10.430;792.0;689.0
11:41:10.470;563.0;546.0
11:41:10.510;71.0;257.0
11:41:10.550;-282.0;-185.0
11:41:10.590;-329.0;-87.0
11:41:10.630;-231.0;-51.0
11:41:10.670;-244.0;-49.0
11:41:10.710;-122.0;-150.0
11:41:10.750;1163.0;477.0
11:41:10.790;1152.0;2592.0
11:41:10.830;-526.0;3619.0
11:41:10.870;-263.0;1895.0
11:41:10.910;-210.0;-161.0
11:41:10.950;-108.0;-1212.0
11:41:10.990;-10.0;-2142.0
11:41:11.030;215.0;-2824.0
11:41:11.070;569.0;-2202.0
11:41:11.110;369.0;-793.0
11:41:11.150;8.0;-286.0
11:41:11.190;-8.0;-132.0
11:41:11.230;-89.0;207.0
11:41:11.270;-164.0;216.0
11:41:11.310;-266.0;48.0
11:41:11.350;-264.0;-30.0
11:41:11.390;-196.0;173.0
11:41:11.430;414.0;690.0
11:41:11.470;-745.0;833.0
11:41:11.510;-244.0;-1012.0
11:41:11.550;-47.0;-422.0
11:41:11.590;63.0;-231.0
11:41:11.630;305.0;-17.0
11:41:11.670;625.0;514.0
11:41:11.710;1076.0;956.0
11:41:11.750;906.0;541.0
11:41:11.790;420.0;548.0
11:41:11.830;-6.0;384.0
11:41:11.870;-170.0;76.0
11:41:11.910;-277.0;98.0
11:41:11.950;-203.0;197.0
11:41:11.990;-260.0;166.0
11:41:12.030;-305.0;-159.0
11:41:12.070;389.0;698.0
11:41:12.110;222.0;1230.0
11:41:12.150;328.0;507.0
11:41:12.190;-143.0;-207.0
11:41:12.230;-313.0;-323.0
11:41:12.270;-206.0;-218.0
11:41:12.310;-84.0;-133.0
11:41:12.350;166.0;15.0
11:41:12.390;-4.0;57.0
11:41:12.430;-76.0;79.0
11:41:12.470;-245.0;-134.0
11:41:12.510;-253.0;-32.0
11:41:12.550;-197.0;34.0
11:41:12.590;-155.0;178.0
11:41:12.630;-178.0;96.0
11:41:12.670;-205.0;-59.0
11:41:12.710;-102.0;193.0
11:41:09.787;968.0;2452.0
11:41:09.827;621.0;1291.0
11:41:09.867;921.0;1354.0
11:41:09.907;656.0;697.0
11:41:09.947;46.0;125.0
11:41:09.987;-273.0;34.0
11:41:10.027;-392.0;23.0
11:41:10.067;-452.0;-220.0
11:41:10.107;-571.0;-358.0
11:41:10.147;-482.0;-106.0
11:41:10.187;-357.0;-249.0
11:41:10.227;-437.0;-385.0
11:41:10.267;486.0;1155.0
11:41:10.307;-477.0;797.0
11:41:10.347;-1024.0;-1020.0
11:41:10.387;-720.0;-530.0
11:41:10.427;-455.0;-393.0
11:41:10.467;-36.0;-229.0
11:41:10.507;467.0;328.0
11:41:10.547;893.0;744.0
11:41:10.587;623.0;497.0
11:41:10.627;73.0;213.0
11:41:10.667;-195.0;182.0
11:41:10.707;-405.0;35.0
11:41:10.747;-429.0;-183.0
11:41:10.787;101.0;461.0
11:41:10.827;-1348.0;642.0
11:41:10.867;-1223.0;-1282.0
11:41:10.907;-512.0;-545.0
11:41:10.947;-248.0;-237.0
11:41:10.987;3.0;-122.0
11:41:11.027;473.0;289.0
11:41:11.067;832.0;708.0
11:41:11.107;616.0;479.0
11:41:11.147;156.0;194.0
11:41:11.187;-79.0;235.0
11:41:11.227;-371.0;99.0
11:41:11.267;-438.0;-67.0
11:41:11.307;-305.0;-99.0
11:41:11.347;-360.0;47.0
11:41:11.387;-457.0;-60.0
11:41:11.427;-428.0;-88.0
11:41:11.467;-236.0;-80.0
11:41:11.507;1193.0;2776.0
11:41:11.547;182.0;839.0
11:41:11.587;-552.0;83.0
11:41:11.627;-415.0;-90.0
11:41:11.667;-315.0;-184.0
11:41:11.707;-43.0;-196.0
11:41:11.747;306.0;242.0
11:41:11.787;628.0;587.0
11:41:11.827;278.0;360.0
11:41:11.867;-28.0;112.0
11:41:11.907;-208.0;-34.0
11:41:11.947;-349.0;43.0
11:41:11.987;-360.0;-89.0
11:41:12.027;-265.0;-225.0
11:41:12.067;-388.0;-326.0
11:41:12.107;-294.0;-10.0
11:41:12.147;-235.0;-10.0
11:41:12.187;-268.0;-108.0
11:41:12.227;501.0;901.0
11:41:12.267;-585.0;747.0
11:41:12.307;-30.0;-1106.0
11:41:12.347;-131.0;-585.0
11:41:12.387;-145.0;-306.0
11:41:12.427;75.0;-119.0
11:41:12.467;465.0;376.0
11:41:12.507;865.0;712.0
11:41:12.547;701.0;606.0
11:41:12.587;287.0;247.0
11:41:12.627;-114.0;48.0
11:41:12.667;-313.0;116.0
11:41:12.707;-223.0;-42.0
11:41:12.747;-218.0;-88.0
11:41:12.787;-244.0;-152.0
11:41:12.827;468.0;270.0
11:41:12.867;1686.0;1235.0
11:41:12.907;935.0;4729.0
11:41:12.947;-137.0;2276.0
11:41:12.987;-481.0;99.0
11:41:13.027;-611.0;-899.0
11:41:13.067;-559.0;-1607.0
11:41:13.107;-428.0;-2047.0
11:41:13.147;-430.0;-1832.0
11:41:13.187;-256.0;-711.0
11:41:13.227;-298.0;-227.0
11:41:13.267;-276.0;-130.0
11:41:13.307;-259.0;-125.0
11:41:13.347;-261.0;20.0
11:41:13.387;-204.0;-146.0
11:41:13.427;-253.0;-94.0
11:41:13.467;-88.0;179.0
11:41:13.507;-107.0;198.0
11:41:13.547;-150.0;152.0
11:41:13.587;-55.0;213.0
11:41:13.627;1376.0;3038.0
11:41:13.667;380.0;1039.0
11:41:13.707;156.0;369.0
11:41:13.747;-70.0;-19.0
11:41:12.736;-142.0;-298.0
11:41:12.776;351.0;137.0
11:41:12.816;195.0;20.0
11:41:12.856;-171.0;49.0
11:41:12.896;-357.0;-30.0
11:41:12.936;-262.0;133.0
11:41:12.976;-233.0;71.0
11:41:13.016;-285.0;31.0
11:41:13.056;-431.0;-342.0
11:41:13.096;-218.0;-35.0
11:41:13.136;-65.0;-51.0
11:41:13.176;201.0;2197.0
11:41:13.216;-425.0;42.0
11:41:13.256;-544.0;-28.0
11:41:13.296;-324.0;-184.0
11:41:13.336;-112.0;-307.0
11:41:13.376;285.0;10.0
11:41:13.416;796.0;685.0
11:41:13.456;830.0;572.0
11:41:13.496;274.0;40.0
11:41:13.536;-43.0;61.0
11:41:13.576;-340.0;60.0
11:41:13.616;-490.0;-143.0
11:41:13.656;-427.0;-429.0
11:41:13.696;-350.0;-99.0
11:41:13.736;-335.0;-53.0
11:41:13.776;-455.0;-335.0
11:41:13.816;-268.0;-240.0
11:41:13.856;-322.0;-60.0
11:41:13.896;-389.0;-44.0
11:41:13.936;-466.0;-402.0
11:41:13.976;-257.0;-137.0
11:41:14.016;-171.0;42.0
11:41:14.056;-215.0;-7.0
11:41:14.096;440.0;-37.0
11:41:14.136;1563.0;1126.0
11:41:14.176;744.0;3891.0
11:41:14.216;-10.0;2434.0
11:41:14.256;-246.0;346.0
11:41:14.296;-365.0;-1031.0
11:41:14.336;-407.0;-1724.0
11:41:14.376;-357.0;-2375.0
11:41:14.416;-409.0;-2604.0
11:41:14.456;-235.0;-1258.0
11:41:14.496;-165.0;-348.0
11:41:14.536;-205.0;-76.0
11:41:14.576;-335.0;41.0
11:41:14.616;-239.0;62.0
11:41:14.656;-176.0;-102.0
11:41:14.696;-212.0;61.0
11:41:14.736;-308.0;-65.0
11:41:14.776;-226.0;-143.0
11:41:14.816;-235.0;-15.0
11:41:14.856;-369.0;-11.0
11:41:14.896;-393.0;-220.0
11:41:14.936;-152.0;-52.0
11:41:14.976;-190.0;3.0
11:41:15.016;-210.0;-79.0
11:41:15.056;-153.0;-8.0
11:41:15.096;-131.0;20.0
11:41:15.136;-147.0;-50.0
11:41:15.176;1292.0;2671.0
11:41:15.216;488.0;1158.0
11:41:15.256;-52.0;-170.0
11:41:15.296;-176.0;-433.0
11:41:15.336;-52.0;-461.0
11:41:15.376;113.0;-146.0
11:41:15.416;467.0;347.0
11:41:15.456;744.0;412.0
11:41:15.496;531.0;302.0
11:41:15.536;56.0;101.0
11:41:15.576;-164.0;-44.0
11:41:15.616;-274.0;-140.0
11:41:15.656;-285.0;-145.0
11:41:15.696;-287.0;-102.0
11:41:15.736;-275.0;-273.0
11:41:15.776;-201.0;-286.0
11:41:15.816;-207.0;31.0
11:41:15.856;-223.0;33.0
11:41:15.896;693.0;1005.0
11:41:15.936;-506.0;1000.0
11:41:15.976;-269.0;-1045.0
11:41:16.016;-133.0;-412.0
11:41:16.056;-32.0;-254.0
11:41:16.096;80.0;-107.0
11:41:16.136;493.0;460.0
11:41:16.176;1026.0;1078.0
11:41:16.216;937.0;668.0
11:41:16.256;259.0;469.0
11:41:16.296;-197.0;322.0
11:41:16.336;-424.0;128.0
11:41:16.376;-363.0;125.0
11:41:16.416;-384.0;387.0
11:41:16.456;-410.0;273.0
11:41:16.496;-350.0;190.0
11:41:16.536;-346.0;70.0
11:41:16.576;-351.0;123.0
11:41:16.616;-382.0;105.0
11:41:16.656;1089.0;2804.0
11:41:16.696;178.0;1085.0
11:41:13.666;-387.0;182.0
11:41:13.706;-561.0;267.0
11:41:13.746;-38.0;1359.0
11:41:13.786;-1594.0;1011.0
11:41:13.826;-1026.0;-51.0
11:41:13.866;-548.0;-88.0
11:41:13.906;-296.0;-336.0
11:41:13.946;-57.0;-100.0
11:41:13.986;199.0;330.0
11:41:14.026;625.0;632.0
11:41:14.066;494.0;530.0
11:41:14.106;55.0;275.0
11:41:14.146;-209.0;121.0
11:41:14.186;-296.0;261.0
11:41:14.226;-308.0;-13.0
11:41:14.266;-353.0;-89.0
11:41:14.306;-446.0;-56.0
11:41:14.346;-531.0;-183.0
11:41:14.386;-220.0;-5.0
11:41:14.426;2542.0;3205.0
11:41:14.466;885.0;1607.0
11:41:14.506;-51.0;351.0
11:41:14.546;-467.0;-465.0
11:41:14.586;-685.0;-744.0
11:41:14.626;-651.0;-875.0
11:41:14.666;-600.0;-786.0
11:41:14.706;-372.0;-143.0
11:41:14.746;-506.0;-65.0
11:41:14.786;-541.0;-149.0
11:41:14.826;-408.0;-33.0
11:41:14.866;-272.0;-8.0
11:41:14.906;-269.0;-12.0
11:41:14.946;-368.0;-58.0
11:41:14.986;-246.0;-70.0
11:41:15.026;-27.0;9.0
11:41:15.066;-218.0;47.0
11:41:15.106;-282.0;-49.0
11:41:15.146;-45.0;-65.0
11:41:15.186;-41.0;-113.0
11:41:15.226;-219.0;-92.0
11:41:15.266;-201.0;91.0
11:41:15.306;-30.0;17.0
11:41:15.346;1054.0;2433.0
11:41:15.386;400.0;674.0
11:41:15.426;-312.0;39.0
11:41:15.466;-212.0;-355.0
11:41:15.506;-43.0;-314.0
11:41:15.546;153.0;-210.0
11:41:15.586;518.0;-1.0
11:41:15.626;779.0;327.0
11:41:15.666;528.0;342.0
11:41:15.706;143.0;122.0
11:41:15.746;-132.0;-128.0
11:41:15.786;-272.0;24.0
11:41:15.826;-264.0;88.0
11:41:15.866;-240.0;-108.0
11:41:15.906;-249.0;-142.0
11:41:15.946;-218.0;15.0
11:41:15.986;-199.0;48.0
11:41:16.026;355.0;183.0
11:41:16.066;1627.0;1300.0
11:41:16.106;577.0;3570.0
11:41:16.146;49.0;3872.0
11:41:16.186;-415.0;1002.0
11:41:16.226;-657.0;-640.0
11:41:16.266;-702.0;-1716.0
11:41:16.306;-579.0;-2463.0
11:41:16.346;-425.0;-2360.0
11:41:16.386;-248.0;-1692.0
11:41:16.426;-244.0;-729.0
11:41:16.466;-198.0;-192.0
11:41:16.506;-211.0;0.0
11:41:16.546;-249.0;-44.0
11:41:16.586;-309.0;-79.0
11:41:16.626;-128.0;96.0
11:41:16.666;-144.0;136.0
11:41:16.706;-127.0;30.0
11:41:16.746;-149.0;72.0
11:41:16.786;-56.0;177.0
11:41:16.826;-122.0;182.0
11:41:16.866;83.0;147.0
11:41:16.906;638.0;2807.0
11:41:16.946;-14.0;880.0
11:41:16.986;-403.0;296.0
11:41:17.026;-174.0;107.0
11:41:17.066;63.0;-107.0
11:41:17.106;335.0;71.0
11:41:17.146;856.0;611.0
11:41:17.186;1116.0;613.0
11:41:17.226;581.0;246.0
11:41:17.266;127.0;125.0
11:41:17.306;-139.0;-41.0
11:41:17.346;-208.0;-97.0
11:41:17.386;-205.0;31.0
11:41:17.426;-235.0;-82.0
11:41:17.466;-231.0;-326.0
11:41:17.506;-267.0;-211.0
11:41:17.546;-244.0;-137.0
11:41:17.586;-275.0;-306.0
11:41:17.626;-192.0;-316.0
11:41:15.909;-164.0;-114.0
11:41:15.949;-511.0;-638.0
11:41:15.989;-721.0;-381.0
11:41:16.029;-350.0;-380.0
11:41:16.069;-64.0;-550.0
11:41:16.109;168.0;-255.0
11:41:16.149;645.0;529.0
11:41:16.189;911.0;717.0
11:41:16.229;559.0;315.0
11:41:16.269;-31.0;7.0
11:41:16.309;-193.0;-70.0
11:41:16.349;-356.0;-41.0
11:41:16.389;-480.0;-96.0
11:41:16.429;-480.0;-202.0
11:41:16.469;-137.0;-162.0
11:41:16.509;1164.0;398.0
11:41:16.549;1008.0;2396.0
11:41:16.589;-728.0;3237.0
11:41:16.629;-319.0;1765.0
11:41:16.669;-455.0;-270.0
11:41:16.709;-482.0;-1527.0
11:41:16.749;-227.0;-2498.0
11:41:16.789;82.0;-2867.0
11:41:16.829;241.0;-2565.0
11:41:16.869;93.0;-1193.0
11:41:16.909;-149.0;-418.0
11:41:16.949;-221.0;-115.0
11:41:16.989;-358.0;-106.0
11:41:17.029;-358.0;-19.0
11:41:17.069;-366.0;187.0
11:41:17.109;-435.0;91.0
11:41:17.149;-429.0;-90.0
11:41:17.189;-394.0;83.0
11:41:17.229;-329.0;186.0
11:41:17.269;-242.0;32.0
11:41:17.309;1101.0;2861.0
11:41:17.349;358.0;978.0
11:41:17.389;-361.0;122.0
11:41:17.429;-279.0;-393.0
11:41:17.469;-203.0;-340.0
11:41:17.509;-88.0;-138.0
11:41:17.549;296.0;346.0
11:41:17.589;709.0;674.0
11:41:17.629;446.0;545.0
11:41:17.669;15.0;206.0
11:41:17.709;-269.0;-265.0
11:41:17.749;-405.0;-221.0
11:41:17.789;-397.0;-135.0
11:41:17.829;-375.0;-281.0
11:41:17.869;-318.0;-181.0
11:41:17.909;-301.0;-139.0
11:41:17.949;-291.0;-152.0
11:41:17.989;-388.0;-270.0
11:41:18.029;-319.0;-208.0
11:41:18.069;-240.0;-294.0
11:41:18.109;1234.0;183.0
11:41:18.149;2704.0;4779.0
11:41:18.189;756.0;1765.0
11:41:18.229;-87.0;68.0
11:41:18.269;-501.0;-618.0
11:41:18.309;-613.0;-1115.0
11:41:18.349;-425.0;-1451.0
11:41:18.389;-311.0;-1069.0
11:41:18.429;-391.0;-497.0
11:41:18.469;-411.0;-273.0
11:41:18.509;-322.0;-193.0
11:41:18.549;-220.0;-189.0
11:41:18.589;-341.0;-80.0
11:41:18.629;-302.0;-192.0
11:41:18.669;-24.0;-295.0
11:41:18.709;1488.0;654.0
11:41:18.749;1342.0;3912.0
11:41:18.789;152.0;1454.0
11:41:18.829;-410.0;-129.0
11:41:18.869;-609.0;-666.0
11:41:18.909;-681.0;-1129.0
11:41:18.949;-546.0;-1291.0
11:41:18.989;-381.0;-593.0
11:41:19.029;-335.0;-166.0
11:41:19.069;-426.0;-277.0
11:41:19.109;-328.0;-215.0
11:41:19.149;-251.0;-8.0
11:41:19.189;-212.0;71.0
11:41:19.229;1051.0;2328.0
11:41:19.269;165.0;1023.0
11:41:19.309;-326.0;-104.0
11:41:19.349;-253.0;-476.0
11:41:19.389;-222.0;-437.0
11:41:19.429;-15.0;-369.0
11:41:19.469;397.0;-89.0
11:41:19.509;642.0;167.0
11:41:19.549;318.0;51.0
11:41:19.589;-64.0;-66.0
11:41:19.629;-327.0;-65.0
11:41:19.669;-371.0;42.0
11:41:19.709;-381.0;39.0
11:41:19.749;-311.0;-84.0
11:41:19.789;-273.0;81.0
11:41:19.829;1143.0;2756.0
11:41:19.869;-60.0;634.0
11:41:17.146;-511.0;182.0
11:41:17.186;384.0;679.0
11:41:17.226;480.0;458.0
11:41:17.266;-27.0;118.0
11:41:17.306;-289.0;70.0
11:41:17.346;-495.0;-135.0
11:41:17.386;-571.0;-82.0
11:41:17.426;-573.0;-213.0
11:41:17.466;-480.0;-208.0
11:41:17.506;-386.0;-37.0
11:41:17.546;159.0;561.0
11:41:17.586;-1082.0;490.0
11:41:17.626;-725.0;-1307.0
11:41:17.666;-364.0;-652.0
11:41:17.706;-326.0;-574.0
11:41:17.746;33.0;-168.0
11:41:17.786;387.0;321.0
11:41:17.826;708.0;739.0
11:41:17.866;555.0;540.0
11:41:17.906;168.0;346.0
11:41:17.946;-164.0;51.0
11:41:17.986;-327.0;35.0
11:41:18.026;-367.0;21.0
11:41:18.066;-359.0;-16.0
11:41:18.106;-321.0;-108.0
11:41:18.146;-293.0;-37.0
11:41:18.186;-298.0;3.0
11:41:18.226;-325.0;-161.0
11:41:18.266;-359.0;-57.0
11:41:18.306;-303.0;-119.0
11:41:18.346;1155.0;331.0
11:41:18.386;1102.0;2371.0
11:41:18.426;-605.0;3405.0
11:41:18.466;-352.0;2210.0
11:41:18.506;-372.0;28.0
11:41:18.546;-261.0;-1426.0
11:41:18.586;-160.0;-2612.0
11:41:18.626;-65.0;-3222.0
11:41:18.666;162.0;-2779.0
11:41:18.706;101.0;-1333.0
11:41:18.746;-224.0;-498.0
11:41:18.786;-338.0;-204.0
11:41:18.826;-305.0;16.0
11:41:18.866;-337.0;32.0
11:41:18.906;-316.0;-48.0
11:41:18.946;-170.0;190.0
11:41:18.986;-317.0;233.0
11:41:19.026;-410.0;-16.0
11:41:19.066;-418.0;-20.0
11:41:19.106;-324.0;-131.0
11:41:19.146;-162.0;51.0
11:41:19.186;1102.0;489.0
11:41:19.226;917.0;2230.0
11:41:19.266;-720.0;3396.0
11:41:19.306;-300.0;2105.0
11:41:19.346;-398.0;-531.0
11:41:19.386;-290.0;-1994.0
11:41:19.426;-164.0;-3062.0
11:41:19.466;158.0;-3544.0
11:41:19.506;398.0;-3016.0
11:41:19.546;207.0;-1643.0
11:41:19.586;11.0;-882.0
11:41:19.626;-159.0;-386.0
11:41:19.666;-220.0;-367.0
11:41:19.706;-281.0;-464.0
11:41:19.746;-242.0;-241.0
11:41:19.786;-293.0;-258.0
11:41:19.826;-148.0;-204.0
11:41:19.866;-154.0;-86.0
11:41:19.906;-191.0;-87.0
11:41:19.946;-258.0;-239.0
11:41:19.986;-89.0;-62.0
11:41:20.026;957.0;364.0
11:41:20.066;1801.0;1746.0
11:41:20.106;-122.0;4240.0
11:41:20.146;-245.0;3304.0
11:41:20.186;-272.0;724.0
11:41:20.226;-287.0;-1038.0
11:41:20.266;-186.0;-2069.0
11:41:20.306;26.0;-2652.0
11:41:20.346;181.0;-2820.0
11:41:20.386;277.0;-1726.0
11:41:20.426;23.0;-832.0
11:41:20.466;-114.0;-426.0
11:41:20.506;-164.0;4.0
11:41:20.546;-212.0;-79.0
11:41:20.586;-186.0;-215.0
11:41:20.626;-167.0;32.0
11:41:20.666;38.0;100.0
11:41:20.706;1323.0;736.0
11:41:20.746;848.0;2739.0
11:41:20.786;-444.0;3401.0
11:41:20.826;-224.0;1815.0
11:41:20.866;-471.0;-352.0
11:41:20.906;-519.0;-1516.0
11:41:20.946;-288.0;-2054.0
11:41:20.986;-192.0;-2403.0
11:41:21.026;28.0;-1976.0
11:41:21.066;82.0;-698.0
11:41:21.106;-121.0;-95.0
11:41:20.422;-226.0;-80.0
11:41:20.462;-226.0;32.0
11:41:20.502;-202.0;-60.0
11:41:20.542;-284.0;-122.0
11:41:20.582;270.0;486.0
11:41:20.622;-1049.0;923.0
11:41:20.662;-901.0;-1121.0
11:41:20.702;-362.0;-459.0
11:41:20.742;-71.0;-131.0
11:41:20.782;224.0;-141.0
11:41:20.822;655.0;299.0
11:41:20.862;1064.0;906.0
11:41:20.902;1016.0;835.0
11:41:20.942;436.0;375.0
11:41:20.982;-27.0;182.0
11:41:21.022;-307.0;3.0
11:41:21.062;-390.0;-78.0
11:41:21.102;-303.0;-202.0
11:41:21.142;-330.0;-97.0
11:41:21.182;-348.0;-76.0
11:41:21.222;-343.0;-249.0
11:41:21.262;362.0;603.0
11:41:21.302;-875.0;614.0
11:41:21.342;-785.0;-1404.0
11:41:21.382;-392.0;-792.0
11:41:21.422;-86.0;-496.0
11:41:21.462;38.0;-310.0
11:41:21.502;409.0;213.0
11:41:21.542;900.0;589.0
11:41:21.582;745.0;308.0
11:41:21.622;192.0;160.0
11:41:21.662;-135.0;-40.0
11:41:21.702;-185.0;-197.0
11:41:21.742;-268.0;-264.0
11:41:21.782;-374.0;-258.0
11:41:21.822;-257.0;-27.0
11:41:21.862;-253.0;-127.0
11:41:21.902;-383.0;-316.0
11:41:21.942;-378.0;-246.0
11:41:21.982;-373.0;-219.0
11:41:22.022;-268.0;-180.0
11:41:22.062;-175.0;80.0
11:41:22.102;-320.0;-108.0
11:41:22.142;-288.0;-275.0
11:41:22.182;-212.0;14.0
11:41:22.222;1098.0;511.0
11:41:22.262;1365.0;2192.0
11:41:22.302;-279.0;3960.0
11:41:22.342;-203.0;2908.0
11:41:22.382;-386.0;277.0
11:41:22.422;-345.0;-1331.0
11:41:22.462;-260.0;-2261.0
11:41:22.502;-62.0;-2988.0
11:41:22.542;107.0;-3201.0
11:41:22.582;74.0;-1699.0
11:41:22.622;-208.0;-625.0
11:41:22.662;-267.0;-307.0
11:41:22.702;-254.0;7.0
11:41:22.742;-295.0;111.0
11:41:22.782;-290.0;85.0
11:41:22.822;-432.0;-89.0
11:41:22.862;-495.0;-21.0
11:41:22.902;-177.0;46.0
11:41:22.942;1219.0;1043.0
11:41:22.982;427.0;3172.0
11:41:23.022;315.0;4430.0
11:41:23.062;-213.0;1379.0
11:41:23.102;-275.0;-633.0
11:41:23.142;-222.0;-1472.0
11:41:23.182;-79.0;-2124.0
11:41:23.222;-85.0;-2591.0
11:41:23.262;30.0;-1611.0
11:41:23.302;-168.0;-546.0
11:41:23.342;-356.0;-194.0
11:41:23.382;-322.0;15.0
11:41:23.422;-228.0;155.0
11:41:23.462;-306.0;237.0
11:41:23.502;-332.0;106.0
11:41:23.542;-236.0;1.0
11:41:23.582;-226.0;232.0
11:41:23.622;538.0;981.0
11:41:23.662;-599.0;997.0
11:41:23.702;-156.0;-948.0
11:41:23.742;-125.0;-453.0
11:41:23.782;-31.0;-297.0
11:41:23.822;170.0;-27.0
11:41:23.862;487.0;442.0
11:41:23.902;950.0;837.0
11:41:23.942;894.0;827.0
11:41:23.982;336.0;415.0
11:41:24.022;-165.0;68.0
11:41:24.062;-379.0;118.0
11:41:24.102;-379.0;155.0
11:41:24.142;-218.0;-44.0
11:41:24.182;1413.0;2570.0
11:41:24.222;286.0;1098.0
11:41:24.262;-311.0;11.0
11:41:24.302;-261.0;-459.0
11:41:24.342;-248.0;-355.0
11:41:24.382;15.0;-138.0
11:41:25.755;558.0;129.0
11:41:25.795;138.0;-164.0
11:41:25.835;-147.0;-104.0
11:41:25.875;-250.0;-66.0
11:41:25.915;-305.0;-110.0
11:41:25.955;-456.0;-331.0
11:41:25.995;-372.0;-180.0
11:41:26.035;-322.0;-194.0
11:41:26.075;1036.0;2252.0
11:41:26.115;795.0;1110.0
11:41:26.155;335.0;429.0
11:41:26.195;-99.0;-79.0
11:41:26.235;-296.0;-544.0
11:41:26.275;-279.0;-524.0
11:41:26.315;-45.0;-390.0
11:41:26.355;161.0;-65.0
11:41:26.395;-48.0;-273.0
11:41:26.435;-207.0;-141.0
11:41:26.475;-300.0;-207.0
11:41:26.515;-344.0;-230.0
11:41:26.555;-415.0;-362.0
11:41:26.595;-337.0;-322.0
11:41:26.635;-309.0;-217.0
11:41:26.675;-318.0;-274.0
11:41:26.715;-359.0;-200.0
11:41:26.755;-332.0;-156.0
11:41:26.795;-275.0;-150.0
11:41:26.835;3.0;-294.0
11:41:26.875;1342.0;673.0
11:41:26.915;490.0;3077.0
11:41:26.955;-883.0;3365.0
11:41:26.995;-580.0;1452.0
11:41:27.035;-503.0;-623.0
11:41:27.075;-357.0;-1863.0
11:41:27.115;-171.0;-2543.0
11:41:27.155;-152.0;-3120.0
11:41:27.195;63.0;-2647.0
11:41:27.235;31.0;-988.0
11:41:27.275;-109.0;-344.0
11:41:27.315;-270.0;-143.0
11:41:27.355;-107.0;-31.0
11:41:27.395;-162.0;158.0
11:41:27.435;-284.0;31.0
11:41:27.475;-330.0;-23.0
11:41:27.515;375.0;432.0
11:41:27.555;-922.0;554.0
11:41:27.595;-389.0;-1347.0
11:41:27.635;-297.0;-902.0
11:41:27.675;-142.0;-186.0
11:41:27.715;93.0;58.0
11:41:27.755;384.0;478.0
11:41:27.795;800.0;1087.0
11:41:27.835;709.0;981.0
11:41:27.875;166.0;411.0
11:41:27.915;-155.0;240.0
11:41:27.955;-236.0;203.0
11:41:27.995;-313.0;74.0
11:41:28.035;-313.0;-139.0
11:41:28.075;-361.0;-63.0
11:41:28.115;-388.0;-44.0
11:41:28.155;-380.0;-164.0
11:41:28.195;-386.0;-246.0
11:41:28.235;-367.0;-73.0
11:41:28.275;-362.0;-42.0
11:41:28.315;-86.0;-163.0
11:41:28.355;1225.0;834.0
11:41:28.395;466.0;3221.0
11:41:28.435;-962.0;3497.0
11:41:28.475;-503.0;1622.0
11:41:28.515;-412.0;-560.0
11:41:28.555;-105.0;-1517.0
11:41:28.595;168.0;-2404.0
11:41:28.635;307.0;-3134.0
11:41:28.675;495.0;-2475.0
11:41:28.715;163.0;-1118.0
11:41:28.755;-75.0;-487.0
11:41:28.795;-30.0;0.0
11:41:28.835;557.0;535.0
11:41:28.875;1487.0;1504.0
11:41:28.915;-382.0;3978.0
11:41:28.955;-434.0;3652.0
11:41:28.995;-375.0;890.0
11:41:29.035;-417.0;-871.0
11:41:29.075;-211.0;-1814.0
11:41:29.115;70.0;-2605.0
11:41:29.155;393.0;-2658.0
11:41:29.195;418.0;-1556.0
11:41:29.235;30.0;-827.0
11:41:29.275;-109.0;-426.0
11:41:29.315;-71.0;-208.0
11:41:29.355;-189.0;-208.0
11:41:29.395;-214.0;-8.0
11:41:29.435;-134.0;-103.0
11:41:29.475;-40.0;116.0
11:41:29.515;-214.0;114.0
11:41:29.555;-366.0;-135.0
11:41:29.595;-223.0;38.0
11:41:29.635;-196.0;164.0
11:41:29.675;930.0;313.0
11:41:29.715;1179.0;2921.0
11:41:29.314;268.0;1327.0
11:41:29.354;-103.0;69.0
11:41:29.394;-56.0;230.0
11:41:29.434;-175.0;83.0
11:41:29.474;-155.0;73.0
11:41:29.514;222.0;1265.0
11:41:29.554;-902.0;649.0
11:41:29.594;-683.0;-208.0
11:41:29.634;-344.0;-244.0
11:41:29.674;-200.0;-289.0
11:41:29.714;92.0;-197.0
11:41:29.754;587.0;162.0
11:41:29.794;822.0;374.0
11:41:29.834;519.0;462.0
11:41:29.874;143.0;167.0
11:41:29.914;-117.0;-180.0
11:41:29.954;-201.0;54.0
11:41:29.994;-232.0;124.0
11:41:30.034;-186.0;-98.0
11:41:30.074;-322.0;-349.0
11:41:30.114;-387.0;-133.0
11:41:30.154;-367.0;66.0
11:41:30.194;-300.0;-67.0
11:41:30.234;-355.0;-127.0
11:41:30.274;-103.0;-198.0
11:41:30.314;-776.0;1163.0
11:41:30.354;-592.0;112.0
11:41:30.394;-643.0;-136.0
11:41:30.434;-385.0;-286.0
11:41:30.474;-89.0;-286.0
11:41:30.514;235.0;-236.0
11:41:30.554;632.0;185.0
11:41:30.594;919.0;470.0
11:41:30.634;548.0;340.0
11:41:30.674;112.0;35.0
11:41:30.714;-262.0;-388.0
11:41:30.754;-279.0;-80.0
11:41:30.794;-207.0;-198.0
11:41:30.834;-231.0;-224.0
11:41:30.874;-394.0;-447.0
11:41:30.914;243.0;163.0
11:41:30.954;-915.0;529.0
11:41:30.994;-959.0;-1123.0
11:41:31.034;-647.0;-1064.0
11:41:31.074;-178.0;-534.0
11:41:31.114;142.0;-236.0
11:41:31.154;529.0;144.0
11:41:31.194;792.0;358.0
11:41:31.234;790.0;384.0
11:41:31.274;291.0;292.0
11:41:31.314;-75.0;78.0
11:41:31.354;-381.0;-270.0
11:41:31.394;-339.0;-106.0
11:41:31.434;931.0;2472.0
11:41:31.474;86.0;632.0
11:41:31.514;-524.0;-240.0
11:41:31.554;-359.0;-329.0
11:41:31.594;-286.0;-389.0
11:41:31.634;-67.0;-355.0
11:41:31.674;311.0;-170.0
11:41:31.714;499.0;210.0
11:41:31.754;77.0;73.0
11:41:31.794;-272.0;-239.0
11:41:31.834;-380.0;-391.0
11:41:31.874;-406.0;-242.0
11:41:31.914;-447.0;-233.0
11:41:31.954;-475.0;-343.0
11:41:31.994;763.0;226.0
11:41:32.034;1454.0;1797.0
11:41:32.074;-321.0;4144.0
11:41:32.114;-313.0;2832.0
11:41:32.154;-563.0;130.0
11:41:32.194;-637.0;-1412.0
11:41:32.234;-611.0;-2553.0
11:41:32.274;-397.0;-3335.0
11:41:32.314;-207.0;-3476.0
11:41:32.354;-168.0;-1760.0
11:41:32.394;-269.0;-696.0
11:41:32.434;-303.0;-324.0
11:41:32.474;-253.0;-131.0
11:41:32.514;-386.0;2020.0
11:41:32.554;-259.0;556.0
11:41:32.594;-765.0;-84.0
11:41:32.634;-496.0;-234.0
11:41:32.674;-168.0;-49.0
11:41:32.714;152.0;330.0
11:41:32.754;554.0;1010.0
11:41:32.794;643.0;787.0
11:41:32.834;239.0;368.0
11:41:32.874;-84.0;-120.0
11:41:32.914;-232.0;-116.0
11:41:32.954;-177.0;-191.0
11:41:32.994;-146.0;-187.0
11:41:33.034;-209.0;-40.0
11:41:33.074;-236.0;-39.0
11:41:33.114;66.0;-127.0
11:41:33.154;2389.0;2247.0
11:41:33.194;773.0;1278.0
11:41:33.234;-49.0;-65.0
11:41:33.274;-281.0;-712.0
11:41:37.212;-439.0;-1044.0
11:41:37.252;-494.0;-660.0
11:41:37.292;-545.0;-593.0
11:41:37.332;-574.0;-641.0
11:41:37.372;-435.0;-330.0
11:41:37.412;-439.0;-354.0
11:41:37.452;-167.0;-349.0
11:41:37.492;-1076.0;344.0
11:41:37.532;-951.0;-708.0
11:41:37.572;-565.0;-571.0
11:41:37.612;-321.0;-686.0
11:41:37.652;130.0;-119.0
11:41:37.692;549.0;431.0
11:41:37.732;874.0;706.0
11:41:37.772;754.0;545.0
11:41:37.812;231.0;342.0
11:41:37.852;-224.0;-72.0
11:41:37.892;-370.0;-108.0
11:41:37.932;-330.0;-18.0
11:41:37.972;-316.0;-136.0
11:41:38.012;-413.0;-224.0
11:41:38.052;44.0;472.0
11:41:38.092;-1320.0;584.0
11:41:38.132;-1039.0;-1748.0
11:41:38.172;-534.0;-1078.0
11:41:38.212;-331.0;-650.0
11:41:38.252;-117.0;-401.0
11:41:38.292;211.0;91.0
11:41:38.332;663.0;466.0
11:41:38.372;541.0;387.0
11:41:38.412;188.0;317.0
11:41:38.452;-187.0;-1.0
11:41:38.492;-310.0;-252.0
11:41:38.532;-291.0;-40.0
11:41:38.572;-290.0;-26.0
11:41:38.612;-393.0;-339.0
11:41:38.652;664.0;1601.0
11:41:38.692;-117.0;835.0
11:41:38.732;-238.0;-771.0
11:41:38.772;-328.0;-760.0
11:41:38.812;-364.0;-481.0
11:41:38.852;-131.0;-245.0
11:41:38.892;104.0;-14.0
11:41:38.932;366.0;88.0
11:41:38.972;196.0;253.0
11:41:39.012;-106.0;141.0
11:41:39.052;-317.0;-298.0
11:41:39.092;-326.0;-303.0
11:41:39.132;-339.0;-103.0
11:41:39.172;-430.0;-178.0
11:41:39.212;-465.0;-383.0
11:41:39.252;-349.0;-295.0
11:41:39.292;-359.0;-240.0
11:41:39.332;149.0;144.0
11:41:39.372;-1012.0;272.0
11:41:39.412;807.0;-622.0
11:41:39.452;238.0;-522.0
11:41:39.492;-45.0;-601.0
11:41:39.532;-82.0;-539.0
11:41:39.572;119.0;-262.0
11:41:39.612;384.0;281.0
11:41:39.652;210.0;418.0
11:41:39.692;-45.0;129.0
11:41:39.732;-287.0;-135.0
11:41:39.772;-332.0;59.0
11:41:39.812;-281.0;25.0
11:41:39.852;209.0;1.0
11:41:39.892;2998.0;3644.0
11:41:39.932;997.0;1546.0
11:41:39.972;115.0;423.0
11:41:40.012;-385.0;-367.0
11:41:40.052;-524.0;-924.0
11:41:40.092;-445.0;-759.0
11:41:40.132;-338.0;-377.0
11:41:40.172;-360.0;-300.0
11:41:40.212;-257.0;-298.0
11:41:40.252;-332.0;-330.0
11:41:40.292;-286.0;-547.0
11:41:40.332;-271.0;-478.0
11:41:40.372;-272.0;-479.0
11:41:40.412;-256.0;-497.0
11:41:40.452;-124.0;-343.0
11:41:40.492;-133.0;-272.0
11:41:40.532;-176.0;-336.0
11:41:40.572;-44.0;-684.0
11:41:40.612;53.0;1684.0
11:41:40.652;15.0;209.0
11:41:40.692;-281.0;-212.0
11:41:40.732;-297.0;-680.0
11:41:40.772;-102.0;-620.0
11:41:40.812;116.0;-485.0
11:41:40.852;538.0;-140.0
11:41:40.892;721.0;-238.0
11:41:40.932;277.0;-251.0
11:41:40.972;-48.0;-338.0
11:41:41.012;-299.0;-500.0
11:41:41.052;-282.0;-601.0
11:41:41.092;-295.0;-402.0
11:41:41.132;-278.0;-498.0
11:41:41.172;-231.0;-634.0
11:41:38.081;-237.0;-270.0
11:41:38.121;-294.0;-363.0
11:41:38.161;1.0;-362.0
11:41:38.201;1280.0;478.0
11:41:38.241;1246.0;3146.0
11:41:38.281;12.0;2076.0
11:41:38.321;-400.0;-170.0
11:41:38.361;-718.0;-1315.0
11:41:38.401;-665.0;-1721.0
11:41:38.441;-565.0;-2147.0
11:41:38.481;-556.0;-2236.0
11:41:38.521;-426.0;-1311.0
11:41:38.561;-275.0;-611.0
11:41:38.601;-315.0;-370.0
11:41:38.641;-331.0;-466.0
11:41:38.681;-293.0;-260.0
11:41:38.721;-277.0;-307.0
11:41:38.761;-319.0;-447.0
11:41:38.801;-339.0;-241.0
11:41:38.841;-355.0;-322.0
11:41:38.881;-384.0;-361.0
11:41:38.921;-164.0;-225.0
11:41:38.961;494.0;2200.0
11:41:39.001;-76.0;280.0
11:41:39.041;-528.0;-328.0
11:41:39.081;-410.0;-396.0
11:41:39.121;-292.0;-551.0
11:41:39.161;-62.0;-547.0
11:41:39.201;499.0;-10.0
11:41:39.241;725.0;287.0
11:41:39.281;335.0;24.0
11:41:39.321;64.0;-333.0
11:41:39.361;-254.0;-331.0
11:41:39.401;-380.0;-397.0
11:41:39.441;-452.0;-569.0
11:41:39.481;-329.0;-333.0
11:41:39.521;-305.0;-238.0
11:41:39.561;-328.0;-344.0
11:41:39.601;-310.0;-285.0
11:41:39.641;-268.0;-397.0
11:41:39.681;1095.0;2259.0
11:41:39.721;379.0;584.0
11:41:39.761;-542.0;-170.0
11:41:39.801;-435.0;-388.0
11:41:39.841;-314.0;-724.0
11:41:39.881;-18.0;-461.0
11:41:39.921;415.0;108.0
11:41:39.961;611.0;398.0
11:41:40.001;227.0;67.0
11:41:40.041;-152.0;-211.0
11:41:40.081;-352.0;-309.0
11:41:40.121;-489.0;-286.0
11:41:40.161;-459.0;-423.0
11:41:40.201;-269.0;-424.0
11:41:40.241;-355.0;-372.0
11:41:40.281;-417.0;-338.0
11:41:40.321;-441.0;-549.0
11:41:40.361;-257.0;-374.0
11:41:40.401;-352.0;-316.0
11:41:40.441;-367.0;-309.0
11:41:40.481;715.0;206.0
11:41:40.521;1903.0;1528.0
11:41:40.561;884.0;4135.0
11:41:40.601;-130.0;1185.0
11:41:40.641;-274.0;-320.0
11:41:40.681;-306.0;-1116.0
11:41:40.721;-231.0;-1734.0
11:41:40.761;-195.0;-1831.0
11:41:40.801;-198.0;-1375.0
11:41:40.841;-218.0;-713.0
11:41:40.881;-270.0;-302.0
11:41:40.921;-200.0;-160.0
11:41:40.961;-144.0;-124.0
11:41:41.001;-183.0;-226.0
11:41:41.041;-95.0;-3.0
11:41:41.081;73.0;0.0
11:41:41.121;-9.0;-74.0
11:41:41.161;-104.0;-174.0
11:41:41.201;-55.0;41.0
11:41:41.241;1303.0;2169.0
11:41:41.281;1542.0;1350.0
11:41:41.321;690.0;225.0
11:41:41.361;292.0;-169.0
11:41:41.401;87.0;-362.0
11:41:41.441;12.0;-529.0
11:41:41.481;75.0;-713.0
11:41:41.521;378.0;-312.0
11:41:41.561;172.0;-283.0
11:41:41.601;-130.0;-593.0
11:41:41.641;-209.0;-435.0
11:41:41.681;-209.0;-145.0
11:41:41.721;-265.0;-344.0
11:41:41.761;-285.0;-283.0
11:41:41.801;-159.0;-303.0
11:41:41.841;-277.0;-403.0
11:41:41.881;-317.0;-324.0
11:41:41.921;-265.0;-206.0
11:41:41.961;143.0;-318.0
11:41:42.001;-804.0;589.0
11:41:42.041;557.0;168.0
11:41:42.480;247.0;-223.0
11:41:42.520;324.0;-186.0
11:41:42.560;544.0;137.0
11:41:42.600;264.0;-48.0
11:41:42.640;-25.0;-216.0
11:41:42.680;-215.0;-284.0
11:41:42.720;-197.0;-163.0
11:41:42.760;-187.0;-195.0
11:41:42.800;-154.0;-220.0
11:41:42.840;-108.0;58.0
11:41:42.880;-90.0;-75.0
11:41:42.920;-85.0;-264.0
11:41:42.960;-22.0;72.0
11:41:43.000;514.0;708.0
11:41:43.040;-791.0;782.0
11:41:43.080;-948.0;-1365.0
11:41:43.120;-372.0;-545.0
11:41:43.160;-171.0;-437.0
11:41:43.200;123.0;-406.0
11:41:43.240;532.0;249.0
11:41:43.280;1039.0;761.0
11:41:43.320;887.0;497.0
11:41:43.360;440.0;204.0
11:41:43.400;-51.0;158.0
11:41:43.440;-330.0;-12.0
11:41:43.480;-289.0;-154.0
11:41:43.520;-301.0;-56.0
11:41:43.560;-318.0;-128.0
11:41:43.600;-355.0;-282.0
11:41:43.640;842.0;1504.0
11:41:43.680;-227.0;732.0
11:41:43.720;-557.0;-1144.0
11:41:43.760;-281.0;-632.0
11:41:43.800;-82.0;-394.0
11:41:43.840;83.0;-313.0
11:41:43.880;437.0;272.0
11:41:43.920;810.0;676.0
11:41:43.960;558.0;406.0
11:41:44.000;67.0;236.0
11:41:44.040;-251.0;92.0
11:41:44.080;-299.0;61.0
11:41:44.120;-467.0;-92.0
11:41:44.160;-418.0;-161.0
11:41:44.200;-73.0;-347.0
11:41:44.240;-1052.0;690.0
11:41:44.280;510.0;53.0
11:41:44.320;28.0;-193.0
11:41:44.360;-333.0;-473.0
11:41:44.400;-311.0;-290.0
11:41:44.440;-90.0;-41.0
11:41:44.480;69.0;272.0
11:41:44.520;86.0;159.0
11:41:44.560;-111.0;104.0
11:41:44.600;-256.0;112.0
11:41:44.640;-312.0;-79.0
11:41:44.680;-40.0;237.0
11:41:44.720;-1268.0;314.0
11:41:44.760;-422.0;-901.0
11:41:44.800;-295.0;-630.0
11:41:44.840;-133.0;-454.0
11:41:44.880;-7.0;-359.0
11:41:44.920;68.0;143.0
11:41:44.960;358.0;452.0
11:41:45.000;429.0;409.0
11:41:45.040;153.0;398.0
11:41:45.080;-113.0;196.0
11:41:45.120;-151.0;-34.0
11:41:45.160;-144.0;79.0
11:41:45.200;-130.0;51.0
11:41:45.240;-194.0;-28.0
11:41:45.280;-238.0;55.0
11:41:45.320;-303.0;5.0
11:41:45.360;-327.0;-147.0
11:41:45.400;-279.0;-66.0
11:41:45.440;-284.0;-81.0
11:41:45.480;1382.0;2534.0
11:41:45.520;521.0;960.0
11:41:45.560;-31.0;-260.0
11:41:45.600;-107.0;-454.0
11:41:45.640;49.0;-394.0
11:41:45.680;176.0;-389.0
11:41:45.720;568.0;-34.0
11:41:45.760;963.0;487.0
11:41:45.800;669.0;329.0
11:41:45.840;175.0;-73.0
11:41:45.880;-30.0;-145.0
11:41:45.920;-147.0;-54.0
11:41:45.960;-154.0;-167.0
11:41:46.000;-127.0;-199.0
11:41:46.040;-188.0;-92.0
11:41:46.080;-265.0;-115.0
11:41:46.120;-345.0;-340.0
11:41:46.160;964.0;1603.0
11:41:46.200;50.0;925.0
11:41:46.240;48.0;-933.0
11:41:46.280;-152.0;-793.0
11:41:46.320;14.0;-364.0
11:41:46.360;40.0;-126.0
11:41:46.400;348.0;193.0
11:41:46.440;826.0;255.0
11:41:46.833;702.0;301.0
11:41:46.873;147.0;262.0
11:41:46.913;-266.0;115.0
11:41:46.953;-457.0;-316.0
11:41:46.993;-333.0;-57.0
11:41:47.033;-323.0;6.0
11:41:47.073;-84.0;18.0
11:41:47.113;-1433.0;189.0
11:41:47.153;-940.0;-714.0
11:41:47.193;-698.0;-445.0
11:41:47.233;-390.0;-311.0
11:41:47.273;-263.0;-604.0
11:41:47.313;403.0;97.0
11:41:47.353;854.0;746.0
11:41:47.393;848.0;683.0
11:41:47.433;236.0;86.0
11:41:47.473;-12.0;101.0
11:41:47.513;-204.0;35.0
11:41:47.553;-393.0;-171.0
11:41:47.593;-324.0;-78.0
11:41:47.633;-273.0;68.0
11:41:47.673;-291.0;-2.0
11:41:47.713;-314.0;-29.0
11:41:47.753;-241.0;50.0
11:41:47.793;-238.0;-243.0
11:41:47.833;738.0;2082.0
11:41:47.873;17.0;389.0
11:41:47.913;-537.0;50.0
11:41:47.953;-302.0;-307.0
11:41:47.993;-183.0;-351.0
11:41:48.033;-5.0;-86.0
11:41:48.073;449.0;367.0
11:41:48.113;667.0;391.0
11:41:48.153;318.0;158.0
11:41:48.193;-72.0;-63.0
11:41:48.233;-250.0;-330.0
11:41:48.273;-145.0;-430.0
11:41:48.313;-908.0;1308.0
11:41:48.353;-537.0;-318.0
11:41:48.393;-350.0;-479.0
11:41:48.433;-241.0;-407.0
11:41:48.473;-218.0;-423.0
11:41:48.513;30.0;-58.0
11:41:48.553;365.0;351.0
11:41:48.593;347.0;218.0
11:41:48.633;-135.0;32.0
11:41:48.673;-336.0;-109.0
11:41:48.713;-328.0;-250.0
11:41:48.753;-311.0;-137.0
11:41:48.793;-405.0;-260.0
11:41:48.833;-306.0;-245.0
11:41:48.873;-341.0;-304.0
11:41:48.913;-462.0;-258.0
11:41:48.953;-392.0;-260.0
11:41:48.993;-412.0;-267.0
11:41:49.033;-351.0;-193.0
11:41:49.073;-312.0;-192.0
11:41:49.113;-226.0;-145.0
11:41:49.153;1187.0;2423.0
11:41:49.193;314.0;767.0
11:41:49.233;7.0;-656.0
11:41:49.273;-169.0;-444.0
11:41:49.313;-148.0;-526.0
11:41:49.353;70.0;-522.0
11:41:49.393;264.0;91.0
11:41:49.433;564.0;426.0
11:41:49.473;542.0;350.0
11:41:49.513;108.0;167.0
11:41:49.553;-249.0;-97.0
11:41:49.593;-198.0;-103.0
11:41:49.633;-156.0;-113.0
11:41:49.673;-178.0;-55.0
11:41:49.713;-297.0;-220.0
11:41:49.753;-239.0;-182.0
11:41:49.793;-167.0;-44.0
11:41:49.833;-287.0;-122.0
11:41:49.873;-119.0;-361.0
11:41:49.913;208.0;1848.0
11:41:49.953;320.0;449.0
11:41:49.993;49.0;-4.0
11:41:50.033;0.0;-149.0
11:41:50.073;71.0;-277.0
11:41:50.113;234.0;-151.0
11:41:50.153;569.0;347.0
11:41:50.193;737.0;261.0
11:41:50.233;408.0;191.0
11:41:50.273;12.0;86.0
11:41:50.313;-265.0;-179.0
11:41:50.353;-329.0;-58.0
11:41:50.393;-291.0;-23.0
11:41:50.433;-278.0;-197.0
11:41:50.473;239.0;85.0
11:41:50.513;2109.0;1443.0
11:41:50.553;369.0;1568.0
11:41:50.593;-179.0;410.0
11:41:50.633;-457.0;-439.0
11:41:50.673;-644.0;-906.0
11:41:50.713;-562.0;-955.0
11:41:50.753;-429.0;-790.0
11:41:50.793;-292.0;-445.0
11:41:55.844;-334.0;-145.0
11:41:55.884;-361.0;-16.0
11:41:55.924;-456.0;-48.0
11:41:55.964;-454.0;-218.0
11:41:56.004;-383.0;-172.0
11:41:56.044;-396.0;-162.0
11:41:56.084;-521.0;-332.0
11:41:56.124;-311.0;-187.0
11:41:56.164;-266.0;-49.0
11:41:56.204;-299.0;-129.0
11:41:56.244;-298.0;-165.0
11:41:56.284;-286.0;-89.0
11:41:56.324;-282.0;-103.0
11:41:56.364;199.0;-80.0
11:41:56.404;-922.0;350.0
11:41:56.444;-308.0;-1279.0
11:41:56.484;-170.0;-820.0
11:41:56.524;-125.0;-375.0
11:41:56.564;-30.0;-150.0
11:41:56.604;249.0;37.0
11:41:56.644;624.0;678.0
11:41:56.684;680.0;796.0
11:41:56.724;220.0;436.0
11:41:56.764;-168.0;242.0
11:41:56.804;-180.0;167.0
11:41:56.844;-276.0;79.0
11:41:56.884;-322.0;104.0
11:41:56.924;-284.0;-51.0
11:41:56.964;-283.0;-180.0
11:41:57.004;-288.0;-90.0
11:41:57.044;-348.0;-260.0
11:41:57.084;-191.0;-398.0
11:41:57.124;-136.0;-51.0
11:41:57.164;-172.0;-30.0
11:41:57.204;346.0;219.0
11:41:57.244;-903.0;318.0
11:41:57.284;-5.0;-1333.0
11:41:57.324;90.0;-589.0
11:41:57.364;35.0;-359.0
11:41:57.404;120.0;-147.0
11:41:57.444;380.0;311.0
11:41:57.484;659.0;871.0
11:41:57.524;768.0;597.0
11:41:57.564;336.0;489.0
11:41:57.604;-114.0;270.0
11:41:57.644;-229.0;159.0
11:41:57.684;-113.0;148.0
11:41:57.724;-103.0;178.0
11:41:57.764;974.0;453.0
11:41:57.804;1522.0;2239.0
11:41:57.844;-344.0;3744.0
11:41:57.884;-70.0;2182.0
11:41:57.924;-194.0;-319.0
11:41:57.964;-113.0;-1326.0
11:41:58.004;27.0;-2177.0
11:41:58.044;105.0;-2966.0
11:41:58.084;510.0;-2523.0
11:41:58.124;483.0;-1117.0
11:41:58.164;165.0;-682.0
11:41:58.204;-21.0;-255.0
11:41:58.244;-98.0;84.0
11:41:58.284;-154.0;4.0
11:41:58.324;-273.0;-99.0
11:41:58.364;-269.0;-95.0
11:41:58.404;-240.0;2.0
11:41:58.444;-206.0;100.0
11:41:58.484;-31.0;-65.0
11:41:58.524;491.0;2284.0
11:41:58.564;91.0;658.0
11:41:58.604;-439.0;131.0
11:41:58.644;-303.0;-329.0
11:41:58.684;-159.0;-372.0
11:41:58.724;187.0;-139.0
11:41:58.764;673.0;423.0
11:41:58.804;1023.0;505.0
11:41:58.844;547.0;180.0
11:41:58.884;566.0;507.0
11:41:58.924;-1425.0;629.0
11:41:58.964;-817.0;-466.0
11:41:59.004;-360.0;-570.0
11:41:59.044;-94.0;-337.0
11:41:59.084;192.0;-277.0
11:41:59.124;405.0;41.0
11:41:59.164;712.0;605.0
11:41:59.204;658.0;350.0
11:41:59.244;171.0;40.0
11:41:59.284;-155.0;-201.0
11:41:59.324;-244.0;-50.0
11:41:59.364;-277.0;-274.0
11:41:59.404;-163.0;-197.0
11:41:59.444;1102.0;547.0
11:41:59.484;1217.0;2198.0
11:41:59.524;920.0;4730.0
11:41:59.564;-269.0;1400.0
11:41:59.604;-742.0;-411.0
11:41:59.644;-923.0;-1626.0
11:41:59.684;-973.0;-2407.0
11:41:59.724;-924.0;-2828.0
11:41:59.764;-692.0;-1978.0
11:41:59.804;-511.0;-1005.0
11:42:06.545;-483.0;-556.0
11:42:06.585;-12.0;312.0
11:42:06.625;-1298.0;784.0
11:42:06.665;-909.0;-1264.0
11:42:06.705;-446.0;-776.0
11:42:06.745;-171.0;-388.0
11:42:06.785;39.0;-174.0
11:42:06.825;476.0;269.0
11:42:06.865;804.0;594.0
11:42:06.905;610.0;353.0
11:42:06.945;193.0;260.0
11:42:06.985;17.0;143.0
11:42:07.025;-179.0;119.0
11:42:07.065;-311.0;-63.0
11:42:07.105;-308.0;40.0
11:42:07.145;-219.0;52.0
11:42:07.185;-313.0;-4.0
11:42:07.225;-216.0;10.0
11:42:07.265;-348.0;6.0
11:42:07.305;-396.0;-133.0
11:42:07.345;1279.0;2639.0
11:42:07.385;293.0;978.0
11:42:07.425;-531.0;-251.0
11:42:07.465;-418.0;-497.0
11:42:07.505;-312.0;-379.0
11:42:07.545;-285.0;-454.0
11:42:07.585;158.0;274.0
11:42:07.625;578.0;642.0
11:42:07.665;212.0;120.0
11:42:07.705;-218.0;-167.0
11:42:07.745;-310.0;-122.0
11:42:07.785;-431.0;-234.0
11:42:07.825;-417.0;-490.0
11:42:07.865;-369.0;-176.0
11:42:07.905;-527.0;37.0
11:42:07.945;-483.0;-135.0
11:42:07.985;-455.0;-364.0
11:42:08.025;-226.0;-137.0
11:42:08.065;-165.0;-120.0
11:42:08.105;877.0;2248.0
11:42:08.145;284.0;483.0
11:42:08.185;-512.0;7.0
11:42:08.225;-431.0;-257.0
11:42:08.265;-227.0;-560.0
11:42:08.305;159.0;-58.0
11:42:08.345;509.0;593.0
11:42:08.385;592.0;533.0
11:42:08.425;331.0;267.0
11:42:08.465;-42.0;142.0
11:42:08.505;-336.0;-69.0
11:42:08.545;-402.0;-314.0
11:42:08.585;-412.0;-170.0
11:42:08.625;-374.0;-56.0
11:42:08.665;-336.0;-48.0
11:42:08.705;-320.0;-435.0
11:42:08.745;-255.0;-291.0
11:42:08.785;-310.0;-133.0
11:42:08.825;-343.0;-73.0
11:42:08.865;-232.0;-120.0
11:42:08.905;-251.0;-13.0
11:42:08.945;-275.0;28.0
11:42:08.985;234.0;418.0
11:42:09.025;-947.0;607.0
11:42:09.065;-117.0;-1186.0
11:42:09.105;-129.0;-569.0
11:42:09.145;-154.0;-509.0
11:42:09.185;191.0;-3.0
11:42:09.225;368.0;352.0
11:42:09.265;755.0;932.0
11:42:09.305;814.0;734.0
11:42:09.345;384.0;593.0
11:42:09.385;40.0;363.0
11:42:09.425;-113.0;197.0
11:42:09.465;-140.0;-142.0
11:42:09.505;-79.0;72.0
11:42:09.545;-54.0;90.0
11:42:09.585;109.0;101.0
11:42:09.625;1838.0;947.0
11:42:09.665;912.0;2373.0
11:42:09.705;304.0;858.0
11:42:09.745;4.0;-74.0
11:42:09.785;-328.0;-617.0
11:42:09.825;-144.0;-721.0
11:42:09.865;128.0;-500.0
11:42:09.905;249.0;54.0
11:42:09.945;21.0;9.0
11:42:09.985;-105.0;-122.0
11:42:10.025;-53.0;49.0
11:42:10.065;-82.0;36.0
11:42:10.105;174.0;-290.0
11:42:10.145;-545.0;1079.0
11:42:10.185;-211.0;-139.0
11:42:10.225;-202.0;-267.0
11:42:10.265;-62.0;-162.0
11:42:10.305;101.0;-297.0
11:42:10.345;428.0;-339.0
11:42:10.385;894.0;349.0
11:42:10.425;898.0;430.0
11:42:10.465;472.0;192.0
11:42:10.505;67.0;-211.0
11:42:06.996;-114.0;-45.0
11:42:07.036;-57.0;-277.0
11:42:07.076;208.0;58.0
11:42:07.116;532.0;614.0
11:42:07.156;552.0;494.0
11:42:07.196;124.0;174.0
11:42:07.236;-316.0;73.0
