Time;Ecg 1;Ecg 2
21:03:43.061;2429856.0;2413905.0
21:03:43.101;3401762.0;3379378.0
21:03:43.141;3669071.0;3645122.0
21:03:43.181;3605932.0;3582835.0
21:03:43.221;3397060.0;3374923.0
21:03:43.261;3133171.0;3112489.0
21:03:43.301;2858546.0;2843102.0
21:03:43.341;2591485.0;2575843.0
21:03:43.381;2341690.0;2326704.0
21:03:43.421;2112333.0;2098540.0
21:03:43.461;1903672.0;1891278.0
21:03:43.501;1714780.0;1703990.0
21:03:43.541;1543968.0;1534605.0
21:03:43.581;1389549.0;1380720.0
21:03:43.621;1250411.0;1242117.0
21:03:43.661;1125324.0;1117705.0
21:03:43.701;1012813.0;1005908.0
21:03:43.741;911507.0;905275.0
21:03:43.781;820349.0;814639.0
21:03:43.821;738232.0;733095.0
21:03:43.861;664349.0;659694.0
21:03:43.901;597814.0;593693.0
21:03:43.941;538023.0;534315.0
21:03:43.981;484390.0;481371.0
21:03:44.021;435980.0;433161.0
21:03:44.061;392248.0;389457.0
21:03:44.101;353460.0;350114.0
21:03:44.141;317275.0;315232.0
21:03:44.181;285780.0;284020.0
21:03:44.221;257387.0;255898.0
21:03:44.261;231850.0;230730.0
21:03:44.301;208977.0;208335.0
21:03:44.341;188317.0;188296.0
21:03:44.381;169385.0;169428.0
21:03:44.421;152082.0;151659.0
21:03:44.461;136761.0;136073.0
21:03:44.501;123029.0;122335.0
21:03:44.541;110666.0;110016.0
21:03:44.581;99531.0;98884.0
21:03:44.621;89510.0;88877.0
21:03:44.661;80543.0;79933.0
21:03:44.701;72405.0;71849.0
21:03:44.741;65092.0;64609.0
21:03:44.781;58639.0;58271.0
21:03:44.821;52912.0;52892.0
21:03:44.861;47474.0;47292.0
21:03:44.901;42613.0;42286.0
21:03:44.941;39263.0;40511.0
21:03:44.981;35040.0;35401.0
21:03:45.021;31419.0;31458.0
21:03:45.061;28222.0;28298.0
21:03:45.101;25581.0;25746.0
21:03:45.141;23288.0;23812.0
21:03:45.181;21066.0;21925.0
21:03:45.221;18740.0;19326.0
21:03:45.261;16546.0;16705.0
21:03:45.301;14775.0;14719.0
21:03:45.341;13261.0;13160.0
21:03:45.381;11903.0;11764.0
21:03:45.421;10652.0;10510.0
21:03:45.461;9582.0;9415.0
21:03:45.501;8640.0;8479.0
21:03:45.541;7748.0;7672.0
21:03:45.581;7074.0;7341.0
21:03:45.621;6317.0;6298.0
21:03:45.661;5554.0;5361.0
21:03:45.701;5971.0;6538.0
21:03:45.741;4946.0;5135.0
21:03:45.781;4296.0;4398.0
21:03:45.821;3837.0;4011.0
21:03:45.861;3617.0;3957.0
21:03:45.901;3532.0;4236.0
21:03:45.941;3306.0;4362.0
21:03:45.981;2694.0;3453.0
21:03:46.021;2093.0;2391.0
21:03:46.061;1722.0;1808.0
21:03:46.101;1536.0;1476.0
21:03:46.141;1378.0;1262.0
21:03:46.181;1207.0;1024.0
21:03:46.221;1044.0;842.0
21:03:46.261;890.0;693.0
21:03:46.301;791.0;590.0
21:03:46.341;779.0;831.0
21:03:46.381;849.0;1099.0
21:03:46.421;576.0;546.0
21:03:46.461;347.0;201.0
21:03:46.501;370.0;6437.0
21:03:46.541;423.0;3002.0
21:03:46.581;489.0;1325.0
21:03:46.621;583.0;691.0
21:03:46.661;711.0;649.0
21:03:46.701;939.0;1149.0
21:03:46.741;883.0;1398.0
21:03:46.781;473.0;533.0
21:03:46.821;84.0;-302.0
21:03:46.861;-37.0;-578.0
21:03:46.901;-15.0;-616.0
21:03:46.941;-71.0;-608.0
21:03:46.981;-57.0;-613.0
21:03:47.021;-117.0;-668.0
21:03:46.876;-165.0;-650.0
21:03:46.916;-295.0;-617.0
21:03:46.956;-201.0;-69.0
21:03:46.996;-230.0;-231.0
21:03:47.036;-382.0;-512.0
21:03:47.076;204.0;-580.0
21:03:47.116;-422.0;-570.0
21:03:47.156;-273.0;-223.0
21:03:47.196;-129.0;125.0
21:03:47.236;76.0;490.0
21:03:47.276;325.0;1109.0
21:03:47.316;566.0;1798.0
21:03:47.356;329.0;1516.0
21:03:47.396;-35.0;514.0
21:03:47.436;-294.0;-38.0
21:03:47.476;-292.0;-105.0
21:03:47.516;-360.0;-231.0
21:03:47.556;-353.0;-263.0
21:03:47.596;-339.0;-328.0
21:03:47.636;-422.0;-414.0
21:03:47.676;-368.0;-382.0
21:03:47.716;-333.0;-291.0
21:03:47.756;-187.0;269.0
21:03:47.796;-357.0;-104.0
21:03:47.836;-323.0;-288.0
21:03:47.876;727.0;1488.0
21:03:47.916;223.0;623.0
21:03:47.956;112.0;404.0
21:03:47.996;-11.0;348.0
21:03:48.036;122.0;661.0
21:03:48.076;449.0;1316.0
21:03:48.116;541.0;1769.0
21:03:48.156;331.0;1315.0
21:03:48.196;109.0;595.0
21:03:48.236;-97.0;170.0
21:03:48.276;-146.0;39.0
21:03:48.316;-197.0;-34.0
21:03:48.356;-254.0;-173.0
21:03:48.396;-171.0;-355.0
21:03:48.436;-194.0;-121.0
21:03:48.476;55.0;285.0
21:03:48.516;-279.0;-395.0
21:03:48.556;-388.0;-648.0
21:03:48.596;48.0;4292.0
21:03:48.636;-74.0;1715.0
21:03:48.676;-457.0;180.0
21:03:48.716;-227.0;-254.0
21:03:48.756;-30.0;-55.0
21:03:48.796;185.0;523.0
21:03:48.836;278.0;914.0
21:03:48.876;-221.0;79.0
21:03:48.916;-373.0;-550.0
21:03:48.956;-536.0;-775.0
21:03:48.996;-612.0;-759.0
21:03:49.036;-546.0;-668.0
21:03:49.076;-636.0;-656.0
21:03:49.116;-685.0;-547.0
21:03:49.156;-696.0;-173.0
21:03:49.196;-812.0;-579.0
21:03:49.236;-929.0;-837.0
21:03:49.276;257.0;2163.0
21:03:49.316;-49.0;771.0
21:03:49.356;-318.0;80.0
21:03:49.396;-341.0;-74.0
21:03:49.436;-98.0;228.0
21:03:49.476;264.0;970.0
21:03:49.516;387.0;1453.0
21:03:49.556;113.0;755.0
21:03:49.596;-318.0;-147.0
21:03:49.636;-495.0;-514.0
21:03:49.676;-440.0;-587.0
21:03:49.716;-289.0;-469.0
21:03:49.756;-269.0;-505.0
21:03:49.796;-56.0;-38.0
21:03:49.836;64.0;108.0
21:03:49.876;-224.0;-499.0
21:03:49.916;-328.0;-757.0
21:03:49.956;-314.0;5652.0
21:03:49.996;-137.0;2355.0
21:03:50.036;15.0;695.0
21:03:50.076;135.0;117.0
21:03:50.116;401.0;198.0
21:03:50.156;720.0;853.0
21:03:50.196;641.0;1035.0
21:03:50.236;316.0;100.0
21:03:50.276;5.0;-550.0
21:03:50.316;92.0;-723.0
21:03:50.356;113.0;-729.0
21:03:50.396;112.0;-833.0
21:03:50.436;179.0;-705.0
21:03:50.476;231.0;-314.0
21:03:50.516;-34.0;-829.0
21:03:50.556;-68.0;-1076.0
21:03:50.596;871.0;1698.0
21:03:50.636;443.0;297.0
21:03:50.676;-2.0;-375.0
21:03:50.716;-79.0;-588.0
21:03:50.756;-135.0;-360.0
21:03:50.796;-39.0;344.0
21:03:50.836;-39.0;880.0
21:03:50.990;-360.0;80.0
21:03:51.030;-763.0;-723.0
21:03:51.070;-801.0;-870.0
21:03:51.110;-852.0;-875.0
21:03:51.150;-520.0;-369.0
21:03:51.190;-655.0;-715.0
21:03:51.230;-857.0;-1110.0
21:03:51.270;-760.0;-1578.0
21:03:51.310;-1412.0;-593.0
21:03:51.350;-925.0;-424.0
21:03:51.390;-546.0;-194.0
21:03:51.430;-332.0;170.0
21:03:51.470;62.0;753.0
21:03:51.510;441.0;1577.0
21:03:51.550;295.0;1284.0
21:03:51.590;-128.0;326.0
21:03:51.630;-304.0;-224.0
21:03:51.670;-263.0;-308.0
21:03:51.710;-196.0;-287.0
21:03:51.750;-87.0;-204.0
21:03:51.790;113.0;264.0
21:03:51.830;-119.0;-260.0
21:03:51.870;-214.0;-602.0
21:03:51.910;890.0;1524.0
21:03:51.950;628.0;636.0
21:03:51.990;278.0;186.0
21:03:52.030;269.0;214.0
21:03:52.070;394.0;562.0
21:03:52.110;657.0;1270.0
21:03:52.150;721.0;1707.0
21:03:52.190;366.0;957.0
21:03:52.230;112.0;239.0
21:03:52.270;-13.0;-9.0
21:03:52.310;-19.0;-118.0
21:03:52.350;-34.0;-163.0
21:03:52.390;-58.0;-205.0
21:03:52.430;-19.0;-161.0
21:03:52.470;133.0;444.0
21:03:52.510;-40.0;8.0
21:03:52.550;-108.0;-290.0
21:03:52.590;850.0;2624.0
21:03:52.630;521.0;1162.0
21:03:52.670;298.0;469.0
21:03:52.710;277.0;368.0
21:03:52.750;450.0;623.0
21:03:52.790;688.0;1164.0
21:03:52.830;714.0;1455.0
21:03:52.870;382.0;739.0
21:03:52.910;87.0;50.0
21:03:52.950;-28.0;-199.0
21:03:52.990;48.0;-152.0
21:03:53.030;24.0;-170.0
21:03:53.070;-48.0;-262.0
21:03:53.110;-31.0;-321.0
21:03:53.150;127.0;176.0
21:03:53.190;63.0;55.0
21:03:53.230;-86.0;-356.0
21:03:53.270;222.0;-786.0
21:03:53.310;-557.0;35.0
21:03:53.350;-90.0;237.0
21:03:53.390;164.0;363.0
21:03:53.430;358.0;617.0
21:03:53.470;535.0;1092.0
21:03:53.510;732.0;1725.0
21:03:53.550;442.0;1388.0
21:03:53.590;120.0;598.0
21:03:53.630;-31.0;140.0
21:03:53.670;-64.0;28.0
21:03:53.710;-23.0;-28.0
21:03:53.750;-14.0;-49.0
21:03:53.790;-31.0;-137.0
21:03:53.830;-14.0;-61.0
21:03:53.870;117.0;386.0
21:03:53.910;26.0;104.0
21:03:53.950;-143.0;-264.0
21:03:53.990;776.0;424.0
21:03:54.030;214.0;-98.0
21:03:54.070;111.0;64.0
21:03:54.110;112.0;303.0
21:03:54.150;268.0;751.0
21:03:54.190;494.0;1396.0
21:03:54.230;618.0;1964.0
21:03:54.270;400.0;1456.0
21:03:54.310;11.0;494.0
21:03:54.350;-162.0;-5.0
21:03:54.390;-181.0;-143.0
21:03:54.430;-139.0;-226.0
21:03:54.470;-153.0;-316.0
21:03:54.510;-217.0;-465.0
21:03:54.550;-236.0;-524.0
21:03:54.590;-224.0;-486.0
21:03:54.630;-49.0;-27.0
21:03:54.670;-87.0;-227.0
21:03:54.710;-263.0;-640.0
21:03:54.750;349.0;-497.0
21:03:54.790;-94.0;-745.0
21:03:54.830;-71.0;-489.0
21:03:54.870;-27.0;-233.0
21:03:54.910;176.0;132.0
21:03:54.950;468.0;777.0
21:03:55.093;638.0;1394.0
21:03:55.133;207.0;321.0
21:03:55.173;-21.0;-251.0
21:03:55.213;-127.0;-514.0
21:03:55.253;-115.0;-589.0
21:03:55.293;-96.0;-682.0
21:03:55.333;-121.0;-797.0
21:03:55.373;-113.0;-825.0
21:03:55.413;-143.0;-846.0
21:03:55.453;-149.0;-771.0
21:03:55.493;53.0;-245.0
21:03:55.533;45.0;-353.0
21:03:55.573;-86.0;-687.0
21:03:55.613;440.0;-635.0
21:03:55.653;-101.0;-746.0
21:03:55.693;-34.0;-462.0
21:03:55.733;93.0;-216.0
21:03:55.773;339.0;269.0
21:03:55.813;592.0;802.0
21:03:55.853;742.0;1343.0
21:03:55.893;508.0;954.0
21:03:55.933;166.0;79.0
21:03:55.973;-17.0;-310.0
21:03:56.013;-40.0;-403.0
21:03:56.053;-9.0;-444.0
21:03:56.093;-27.0;-520.0
21:03:56.133;-13.0;-540.0
21:03:56.173;-115.0;-666.0
21:03:56.213;-54.0;-373.0
21:03:56.253;81.0;68.0
21:03:56.293;-76.0;-458.0
21:03:56.333;-174.0;-733.0
21:03:56.373;212.0;4454.0
21:03:56.413;198.0;1751.0
21:03:56.453;165.0;356.0
21:03:56.493;244.0;-107.0
21:03:56.533;396.0;-12.0
21:03:56.573;642.0;526.0
21:03:56.613;620.0;847.0
21:03:56.653;265.0;59.0
21:03:56.693;-24.0;-594.0
21:03:56.733;-184.0;-853.0
21:03:56.773;-197.0;-875.0
21:03:56.813;-182.0;-873.0
21:03:56.853;-178.0;-869.0
21:03:56.893;-168.0;-875.0
21:03:56.933;-218.0;-880.0
21:03:56.973;-242.0;-817.0
21:03:57.013;-89.0;-326.0
21:03:57.053;-143.0;-511.0
21:03:57.093;-262.0;-801.0
21:03:57.133;543.0;-206.0
21:03:57.173;110.0;-513.0
21:03:57.213;26.0;-389.0
21:03:57.253;66.0;-135.0
21:03:57.293;185.0;300.0
21:03:57.333;416.0;985.0
21:03:57.373;550.0;1620.0
21:03:57.413;317.0;1153.0
21:03:57.453;-43.0;172.0
21:03:57.493;-211.0;-287.0
21:03:57.533;-195.0;-356.0
21:03:57.573;-172.0;-417.0
21:03:57.613;-190.0;-487.0
21:03:57.653;-195.0;-555.0
21:03:57.693;-197.0;-557.0
21:03:57.733;-191.0;-549.0
21:03:57.773;-187.0;-486.0
21:03:57.813;29.0;78.0
21:03:57.853;-76.0;-191.0
21:03:57.893;-232.0;-549.0
21:03:57.933;643.0;96.0
21:03:57.973;166.0;-224.0
21:03:58.013;36.0;-171.0
21:03:58.053;70.0;96.0
21:03:58.093;122.0;419.0
21:03:58.133;342.0;1041.0
21:03:58.173;469.0;1648.0
21:03:58.213;208.0;1171.0
21:03:58.253;-182.0;256.0
21:03:58.293;-314.0;-160.0
21:03:58.333;-286.0;-303.0
21:03:58.373;-259.0;-319.0
21:03:58.413;-307.0;-407.0
21:03:58.453;-262.0;-459.0
21:03:58.493;-266.0;-459.0
21:03:58.533;-250.0;-440.0
21:03:58.573;-207.0;-328.0
21:03:58.613;-41.0;172.0
21:03:58.653;-125.0;-72.0
21:03:58.693;-237.0;-386.0
21:03:58.733;716.0;776.0
21:03:58.773;280.0;272.0
21:03:58.813;76.0;170.0
21:03:58.853;85.0;312.0
21:03:58.893;232.0;626.0
21:03:58.933;373.0;1219.0
21:03:58.973;524.0;1762.0
21:03:59.013;238.0;1177.0
21:03:59.053;-93.0;409.0
21:03:59.255;-223.0;-2.0
21:03:59.295;-233.0;-88.0
21:03:59.335;-265.0;-204.0
21:03:59.375;-231.0;-232.0
21:03:59.415;-227.0;-292.0
21:03:59.455;-149.0;-190.0
21:03:59.495;-22.0;301.0
21:03:59.535;-147.0;-25.0
21:03:59.575;-170.0;-274.0
21:03:59.615;820.0;1775.0
21:03:59.655;323.0;711.0
21:03:59.695;101.0;344.0
21:03:59.735;105.0;366.0
21:03:59.775;237.0;635.0
21:03:59.815;466.0;1188.0
21:03:59.855;548.0;1604.0
21:03:59.895;232.0;986.0
21:03:59.935;-98.0;187.0
21:03:59.975;-262.0;-259.0
21:04:00.015;-282.0;-344.0
21:04:00.055;-281.0;-390.0
21:04:00.095;-232.0;-434.0
21:04:00.135;-258.0;-464.0
21:04:00.175;-274.0;-465.0
21:04:00.215;-306.0;-438.0
21:04:00.255;-69.0;117.0
21:04:00.295;-202.0;-132.0
21:04:00.335;-331.0;-455.0
21:04:00.375;583.0;329.0
21:04:00.415;68.0;-40.0
21:04:00.455;-87.0;-1.0
21:04:00.495;-44.0;221.0
21:04:00.535;74.0;563.0
21:04:00.575;342.0;1235.0
21:04:00.615;439.0;1833.0
21:04:00.655;180.0;1273.0
21:04:00.695;-151.0;358.0
21:04:00.735;-331.0;-117.0
21:04:00.775;-348.0;-270.0
21:04:00.815;-342.0;-331.0
21:04:00.855;-300.0;-379.0
21:04:00.895;-345.0;-458.0
21:04:00.935;-382.0;-453.0
21:04:00.975;-386.0;-502.0
21:04:01.015;-400.0;-511.0
21:04:01.055;-268.0;-218.0
21:04:01.095;-146.0;223.0
21:04:01.135;-382.0;-265.0
21:04:01.175;-467.0;-514.0
21:04:01.215;454.0;2948.0
21:04:01.255;153.0;1252.0
21:04:01.295;-51.0;351.0
21:04:01.335;-110.0;123.0
21:04:01.375;49.0;322.0
21:04:01.415;337.0;958.0
21:04:01.455;417.0;1481.0
21:04:01.495;104.0;779.0
21:04:01.535;-165.0;-24.0
21:04:01.575;-283.0;-380.0
21:04:01.615;-346.0;-416.0
21:04:01.655;-361.0;-488.0
21:04:01.695;-317.0;-481.0
21:04:01.735;-298.0;-501.0
21:04:01.775;-313.0;-544.0
21:04:01.815;-300.0;-488.0
21:04:01.855;-284.0;-468.0
21:04:01.895;-181.0;-139.0
21:04:01.935;-53.0;255.0
21:04:01.975;-134.0;-151.0
21:04:02.015;-239.0;-368.0
21:04:02.055;330.0;4428.0
21:04:02.095;145.0;1922.0
21:04:02.135;61.0;652.0
21:04:02.175;79.0;262.0
21:04:02.215;207.0;342.0
21:04:02.255;520.0;875.0
21:04:02.295;544.0;1280.0
21:04:02.335;192.0;489.0
21:04:02.375;-99.0;-174.0
21:04:02.415;-221.0;-501.0
21:04:02.455;-265.0;-559.0
21:04:02.495;-198.0;-457.0
21:04:02.535;-223.0;-501.0
21:04:02.575;-272.0;-563.0
21:04:02.615;-296.0;-582.0
21:04:02.655;-247.0;-530.0
21:04:02.695;-177.0;-406.0
21:04:02.735;-20.0;85.0
21:04:02.775;-86.0;-118.0
21:04:02.815;-189.0;-391.0
21:04:02.855;668.0;357.0
21:04:02.895;154.0;21.0
21:04:02.935;2.0;35.0
21:04:02.975;-17.0;219.0
21:04:03.015;54.0;553.0
21:04:03.055;330.0;1172.0
21:04:03.095;509.0;1790.0
21:04:03.135;171.0;1220.0
21:04:03.175;-150.0;294.0
21:04:03.215;-360.0;-240.0
21:04:03.305;-413.0;-338.0
21:04:03.345;-405.0;-400.0
21:04:03.385;-362.0;-449.0
21:04:03.425;-366.0;-513.0
21:04:03.465;-311.0;-488.0
21:04:03.505;-335.0;-500.0
21:04:03.545;-339.0;-489.0
21:04:03.585;-368.0;-433.0
21:04:03.625;-246.0;-96.0
21:04:03.665;-145.0;221.0
21:04:03.705;-305.0;-210.0
21:04:03.745;-417.0;-441.0
21:04:03.785;72.0;4806.0
21:04:03.825;8.0;2129.0
21:04:03.865;-93.0;669.0
21:04:03.905;-42.0;189.0
21:04:03.945;178.0;331.0
21:04:03.985;473.0;962.0
21:04:04.025;495.0;1386.0
21:04:04.065;192.0;652.0
21:04:04.105;-92.0;-191.0
21:04:04.145;-250.0;-544.0
21:04:04.185;-257.0;-586.0
21:04:04.225;-261.0;-562.0
21:04:04.265;-300.0;-616.0
21:04:04.305;-279.0;-612.0
21:04:04.345;-317.0;-644.0
21:04:04.385;-286.0;-565.0
21:04:04.425;-262.0;-546.0
21:04:04.465;-259.0;-502.0
21:04:04.505;-184.0;-313.0
21:04:04.545;-81.0;145.0
21:04:04.585;-225.0;-178.0
21:04:04.625;-271.0;-448.0
21:04:04.665;725.0;2425.0
21:04:04.705;447.0;1103.0
21:04:04.745;125.0;374.0
21:04:04.785;66.0;237.0
21:04:04.825;201.0;427.0
21:04:04.865;427.0;1038.0
21:04:04.905;549.0;1595.0
21:04:04.945;234.0;913.0
21:04:04.985;-86.0;37.0
21:04:05.025;-244.0;-353.0
21:04:05.065;-262.0;-455.0
21:04:05.105;-256.0;-405.0
21:04:05.145;-224.0;-448.0
21:04:05.185;-256.0;-490.0
21:04:05.225;-220.0;-507.0
21:04:05.265;-122.0;-430.0
21:04:05.305;-236.0;-507.0
21:04:05.345;7.0;-60.0
21:04:05.385;-5.0;-30.0
21:04:05.425;-233.0;-401.0
21:04:05.465;-44.0;-946.0
21:04:05.505;-649.0;489.0
21:04:05.545;-411.0;127.0
21:04:05.585;-70.0;159.0
21:04:05.625;27.0;419.0
21:04:05.665;536.0;896.0
21:04:05.705;862.0;1573.0
21:04:05.745;735.0;1386.0
21:04:05.785;344.0;387.0
21:04:05.825;138.0;-260.0
21:04:05.865;52.0;-504.0
21:04:05.905;36.0;-491.0
21:04:05.945;72.0;-497.0
21:04:05.985;77.0;-582.0
21:04:06.025;32.0;-580.0
21:04:06.065;-11.0;-619.0
21:04:06.105;-61.0;-594.0
21:04:06.145;120.0;-89.0
21:04:06.185;45.0;-287.0
21:04:06.225;-113.0;-627.0
21:04:06.265;488.0;-388.0
21:04:06.305;-56.0;-640.0
21:04:06.345;-31.0;-354.0
21:04:06.385;-67.0;-135.0
21:04:06.425;23.0;251.0
21:04:06.465;302.0;957.0
21:04:06.505;487.0;1649.0
21:04:06.545;210.0;1210.0
21:04:06.585;-222.0;205.0
21:04:06.625;-454.0;-326.0
21:04:06.665;-503.0;-542.0
21:04:06.705;-532.0;-581.0
21:04:06.745;-570.0;-607.0
21:04:06.785;-589.0;-666.0
21:04:06.825;-576.0;-738.0
21:04:06.865;-527.0;-687.0
21:04:06.905;-435.0;-139.0
21:04:06.945;-312.0;-93.0
21:04:06.985;-494.0;-503.0
21:04:07.025;-427.0;-905.0
21:04:07.065;-763.0;2420.0
21:04:07.105;-509.0;940.0
21:04:07.145;-339.0;266.0
21:04:07.185;-141.0;170.0
21:04:07.225;173.0;623.0
21:04:07.265;466.0;1375.0
21:04:10.422;354.0;1411.0
21:04:10.462;-157.0;85.0
21:04:10.502;-377.0;-427.0
21:04:10.542;-408.0;-620.0
21:04:10.582;-352.0;-603.0
21:04:10.622;-329.0;-676.0
21:04:10.662;-367.0;-733.0
21:04:10.702;-292.0;-664.0
21:04:10.742;-268.0;-604.0
21:04:10.782;-69.0;-41.0
21:04:10.822;-66.0;35.0
21:04:10.862;-333.0;-503.0
21:04:10.902;-307.0;-795.0
21:04:10.942;-610.0;3448.0
21:04:10.982;-383.0;1385.0
21:04:11.022;-129.0;493.0
21:04:11.062;82.0;296.0
21:04:11.102;331.0;612.0
21:04:11.142;586.0;1238.0
21:04:11.182;541.0;1368.0
21:04:11.222;239.0;446.0
21:04:11.262;-112.0;-296.0
21:04:11.302;-227.0;-592.0
21:04:11.342;-156.0;-612.0
21:04:11.382;-166.0;-604.0
21:04:11.422;-274.0;-626.0
21:04:11.462;-185.0;-619.0
21:04:11.502;-254.0;-617.0
21:04:11.542;-142.0;-165.0
21:04:11.582;51.0;172.0
21:04:11.622;-127.0;-357.0
21:04:11.662;-205.0;-543.0
21:04:11.702;-395.0;5700.0
21:04:11.742;-140.0;2448.0
21:04:11.782;74.0;866.0
21:04:11.822;180.0;309.0
21:04:11.862;317.0;363.0
21:04:11.902;494.0;849.0
21:04:11.942;480.0;1056.0
21:04:11.982;222.0;274.0
21:04:12.022;-41.0;-379.0
21:04:12.062;-166.0;-623.0
21:04:12.102;-165.0;-617.0
21:04:12.142;-140.0;-626.0
21:04:12.182;-174.0;-688.0
21:04:12.222;-140.0;-652.0
21:04:12.262;-129.0;-628.0
21:04:12.302;-177.0;-618.0
21:04:12.342;-112.0;-145.0
21:04:12.382;-144.0;-326.0
21:04:12.422;-273.0;-639.0
21:04:12.462;252.0;-366.0
21:04:12.502;-166.0;-515.0
21:04:12.542;-198.0;-262.0
21:04:12.582;-110.0;78.0
21:04:12.622;112.0;502.0
21:04:12.662;360.0;1160.0
21:04:12.702;572.0;1913.0
21:04:12.742;425.0;1551.0
21:04:12.782;106.0;585.0
21:04:12.822;-61.0;80.0
21:04:12.862;-99.0;-76.0
21:04:12.902;-45.0;-55.0
21:04:12.942;3.0;2.0
21:04:12.982;-31.0;-114.0
21:04:13.022;-124.0;-217.0
21:04:13.062;-134.0;-256.0
21:04:13.102;-135.0;-249.0
21:04:13.142;-100.0;-133.0
21:04:13.182;122.0;474.0
21:04:13.222;30.0;145.0
21:04:13.262;-87.0;-189.0
21:04:13.302;883.0;646.0
21:04:13.342;443.0;223.0
21:04:13.382;143.0;173.0
21:04:13.422;94.0;309.0
21:04:13.462;222.0;683.0
21:04:13.502;468.0;1383.0
21:04:13.542;598.0;2069.0
21:04:13.582;290.0;1533.0
21:04:13.622;-23.0;572.0
21:04:13.662;-243.0;108.0
21:04:13.702;-267.0;12.0
21:04:13.742;-233.0;-10.0
21:04:13.782;-219.0;-45.0
21:04:13.822;-293.0;-123.0
21:04:13.862;-269.0;-135.0
21:04:13.902;-284.0;-199.0
21:04:13.942;-110.0;339.0
21:04:13.982;-51.0;294.0
21:04:14.022;-261.0;-157.0
21:04:14.062;-150.0;-677.0
21:04:14.102;-666.0;1732.0
21:04:14.142;-327.0;834.0
21:04:14.182;-95.0;499.0
21:04:14.222;110.0;618.0
21:04:14.262;352.0;973.0
21:04:14.302;604.0;1563.0
21:04:14.342;533.0;1563.0
21:04:14.382;205.0;642.0
21:04:11.508;-131.0;13.0
21:04:11.548;-130.0;-155.0
21:04:11.588;-178.0;-262.0
21:04:11.628;-114.0;-249.0
21:04:11.668;-192.0;-415.0
21:04:11.708;-104.0;-363.0
21:04:11.748;-31.0;14.0
21:04:11.788;-270.0;-305.0
21:04:11.828;-423.0;-658.0
21:04:11.868;458.0;177.0
21:04:11.908;-88.0;-343.0
21:04:11.948;-212.0;-283.0
21:04:11.988;-138.0;-121.0
21:04:12.028;-15.0;200.0
21:04:12.068;300.0;955.0
21:04:12.108;518.0;1662.0
21:04:12.148;118.0;1052.0
21:04:12.188;-153.0;148.0
21:04:12.228;-326.0;-298.0
21:04:12.268;-339.0;-419.0
21:04:12.308;-286.0;-404.0
21:04:12.348;-231.0;-410.0
21:04:12.388;-201.0;-472.0
21:04:12.428;2.0;-9.0
21:04:12.468;60.0;-5.0
21:04:12.508;-132.0;-487.0
21:04:12.548;-108.0;-998.0
21:04:12.588;-551.0;1969.0
21:04:12.628;-243.0;739.0
21:04:12.668;-14.0;239.0
21:04:12.708;141.0;223.0
21:04:12.748;413.0;600.0
21:04:12.788;670.0;1296.0
21:04:12.828;531.0;1288.0
21:04:12.868;124.0;256.0
21:04:12.908;-52.0;-288.0
21:04:12.948;-160.0;-564.0
21:04:12.988;-128.0;-557.0
21:04:13.028;-148.0;-567.0
21:04:13.068;77.0;-88.0
21:04:13.108;190.0;44.0
21:04:13.148;-140.0;-554.0
21:04:13.188;-342.0;-905.0
21:04:13.228;-328.0;5510.0
21:04:13.268;-235.0;2107.0
21:04:13.308;-98.0;414.0
21:04:13.348;22.0;-190.0
21:04:13.388;285.0;-48.0
21:04:13.428;527.0;530.0
21:04:13.468;540.0;793.0
21:04:13.508;104.0;-236.0
21:04:13.548;-163.0;-948.0
21:04:13.588;-284.0;-1209.0
21:04:13.628;-278.0;-1251.0
21:04:13.668;-207.0;-1203.0
21:04:13.708;-178.0;-1234.0
21:04:13.748;-23.0;-738.0
21:04:13.788;-282.0;-1170.0
21:04:13.828;-436.0;-1484.0
21:04:13.868;620.0;-118.0
21:04:13.908;238.0;-676.0
21:04:13.948;-28.0;-858.0
21:04:13.988;-71.0;-732.0
21:04:14.028;88.0;-317.0
21:04:14.068;355.0;350.0
21:04:14.108;459.0;907.0
21:04:14.148;199.0;295.0
21:04:14.188;-74.0;-451.0
21:04:14.228;-248.0;-811.0
21:04:14.268;-232.0;-866.0
21:04:14.308;-255.0;-899.0
21:04:14.348;-172.0;-877.0
21:04:14.388;-254.0;-974.0
21:04:14.428;-90.0;-753.0
21:04:14.468;59.0;-243.0
21:04:14.508;-186.0;-693.0
21:04:14.548;-285.0;-982.0
21:04:14.588;566.0;2462.0
21:04:14.628;348.0;853.0
21:04:14.668;146.0;20.0
21:04:14.708;169.0;-149.0
21:04:14.748;327.0;80.0
21:04:14.788;662.0;766.0
21:04:14.828;724.0;1191.0
21:04:14.868;386.0;573.0
21:04:14.908;70.0;-149.0
21:04:14.948;-113.0;-494.0
21:04:14.988;-92.0;-551.0
21:04:15.028;-99.0;-564.0
21:04:15.068;-116.0;-568.0
21:04:15.108;-110.0;-597.0
21:04:15.148;-2.0;-245.0
21:04:15.188;155.0;125.0
21:04:15.228;-38.0;-321.0
21:04:15.268;-167.0;-609.0
21:04:15.308;399.0;4033.0
21:04:15.348;199.0;1600.0
21:04:15.388;110.0;427.0
21:04:15.428;113.0;84.0
21:04:15.468;251.0;224.0
21:04:15.650;497.0;770.0
21:04:15.690;243.0;381.0
21:04:15.730;-64.0;-305.0
21:04:15.770;-174.0;-564.0
21:04:15.810;-168.0;-600.0
21:04:15.850;-151.0;-595.0
21:04:15.890;-224.0;-684.0
21:04:15.930;-220.0;-693.0
21:04:15.970;-245.0;-707.0
21:04:16.010;-163.0;-546.0
21:04:16.050;-61.0;-151.0
21:04:16.090;-241.0;-518.0
21:04:16.130;-325.0;-807.0
21:04:16.170;684.0;919.0
21:04:16.210;364.0;175.0
21:04:16.250;61.0;-104.0
21:04:16.290;-25.0;-68.0
21:04:16.330;92.0;236.0
21:04:16.370;322.0;906.0
21:04:16.410;411.0;1471.0
21:04:16.450;139.0;851.0
21:04:16.490;-66.0;-55.0
21:04:16.530;-259.0;-509.0
21:04:16.570;-235.0;-568.0
21:04:16.610;-209.0;-564.0
21:04:16.650;-244.0;-676.0
21:04:16.690;-282.0;-722.0
21:04:16.730;-270.0;-722.0
21:04:16.770;-275.0;-693.0
21:04:16.810;-213.0;-582.0
21:04:16.850;-60.0;-113.0
21:04:16.890;-194.0;-373.0
21:04:16.930;-283.0;-656.0
21:04:16.970;703.0;345.0
21:04:17.010;262.0;-60.0
21:04:17.050;12.0;-107.0
21:04:17.090;-18.0;34.0
21:04:17.130;93.0;400.0
21:04:17.170;317.0;1058.0
21:04:17.210;511.0;1665.0
21:04:17.250;222.0;1112.0
21:04:17.290;-141.0;141.0
21:04:17.330;-318.0;-321.0
21:04:17.370;-335.0;-377.0
21:04:17.410;-251.0;-370.0
21:04:17.450;-242.0;-455.0
21:04:17.490;-248.0;-495.0
21:04:17.530;-224.0;-472.0
21:04:17.570;-251.0;-549.0
21:04:17.610;-85.0;-154.0
21:04:17.650;46.0;187.0
21:04:17.690;-127.0;-331.0
21:04:17.730;-224.0;-594.0
21:04:17.770;-397.0;5484.0
21:04:17.810;-167.0;2270.0
21:04:17.850;-12.0;684.0
21:04:17.890;50.0;157.0
21:04:17.930;273.0;192.0
21:04:17.970;557.0;682.0
21:04:18.010;536.0;857.0
21:04:18.050;192.0;45.0
21:04:18.090;-69.0;-513.0
21:04:18.130;-141.0;-704.0
21:04:18.170;-172.0;-724.0
21:04:18.210;-230.0;-782.0
21:04:18.250;-299.0;-832.0
21:04:18.290;-309.0;-831.0
21:04:18.330;-316.0;-857.0
21:04:18.370;-136.0;-310.0
21:04:18.410;-80.0;-384.0
21:04:18.450;-246.0;-759.0
21:04:18.490;103.0;-1139.0
21:04:18.530;-641.0;-751.0
21:04:18.570;-396.0;-557.0
21:04:18.610;-182.0;-234.0
21:04:18.650;138.0;248.0
21:04:18.690;299.0;839.0
21:04:18.730;574.0;1572.0
21:04:18.770;347.0;1262.0
21:04:18.810;27.0;304.0
21:04:18.850;-178.0;-251.0
21:04:18.890;-249.0;-453.0
21:04:18.930;-237.0;-519.0
21:04:18.970;-233.0;-552.0
21:04:19.010;-261.0;-640.0
21:04:19.050;-270.0;-663.0
21:04:19.090;-275.0;-660.0
21:04:19.130;-213.0;-370.0
21:04:19.170;-117.0;-59.0
21:04:19.210;-258.0;-509.0
21:04:19.250;-388.0;-825.0
21:04:19.290;61.0;4999.0
21:04:19.330;-14.0;1931.0
21:04:19.370;20.0;438.0
21:04:19.410;91.0;-109.0
21:04:19.450;297.0;42.0
21:04:19.490;509.0;557.0
21:04:19.530;530.0;944.0
21:04:19.570;141.0;119.0
21:04:19.610;-120.0;-585.0
21:04:22.648;-275.0;-885.0
21:04:22.688;-246.0;-955.0
21:04:22.728;-263.0;-1012.0
21:04:22.768;-219.0;-980.0
21:04:22.808;-276.0;-1012.0
21:04:22.848;-295.0;-1022.0
21:04:22.888;-202.0;-776.0
21:04:22.928;-65.0;-357.0
21:04:22.968;-199.0;-820.0
21:04:23.008;-302.0;-1086.0
21:04:23.048;409.0;3203.0
21:04:23.088;174.0;981.0
21:04:23.128;91.0;-122.0
21:04:23.168;87.0;-477.0
21:04:23.208;253.0;-368.0
21:04:23.248;484.0;168.0
21:04:23.288;532.0;494.0
21:04:23.328;226.0;-265.0
21:04:23.368;-59.0;-1026.0
21:04:23.408;-188.0;-1385.0
21:04:23.448;-148.0;-1480.0
21:04:23.488;-216.0;-1626.0
21:04:23.528;-192.0;-1665.0
21:04:23.568;-245.0;-1757.0
21:04:23.608;-295.0;-1780.0
21:04:23.648;-249.0;-1671.0
21:04:23.688;-88.0;-1200.0
21:04:23.728;-182.0;-1448.0
21:04:23.768;-202.0;-1624.0
21:04:23.808;693.0;-429.0
21:04:23.848;254.0;-946.0
21:04:23.888;115.0;-1012.0
21:04:23.928;156.0;-772.0
21:04:23.968;255.0;-386.0
21:04:24.008;480.0;235.0
21:04:24.048;628.0;817.0
21:04:24.088;371.0;387.0
21:04:24.128;24.0;-442.0
21:04:24.168;-169.0;-849.0
21:04:24.208;-192.0;-979.0
21:04:24.248;-152.0;-974.0
21:04:24.288;-161.0;-1010.0
21:04:24.328;-233.0;-1111.0
21:04:24.368;-276.0;-1172.0
21:04:24.408;-286.0;-1202.0
21:04:24.448;-259.0;-1214.0
21:04:24.488;-44.0;-715.0
21:04:24.528;-122.0;-955.0
21:04:24.568;-238.0;-1302.0
21:04:24.608;295.0;-1227.0
21:04:24.648;-257.0;-1357.0
21:04:24.688;-166.0;-1019.0
21:04:24.728;-10.0;-659.0
21:04:24.768;169.0;-208.0
21:04:24.808;410.0;457.0
21:04:24.848;643.0;1175.0
21:04:24.888;401.0;847.0
21:04:24.928;62.0;-65.0
21:04:24.968;-99.0;-582.0
21:04:25.008;-113.0;-655.0
21:04:25.048;-121.0;-698.0
21:04:25.088;-141.0;-740.0
21:04:25.128;-168.0;-785.0
21:04:25.168;-162.0;-787.0
21:04:25.208;-161.0;-717.0
21:04:25.248;-154.0;-718.0
21:04:25.288;-21.0;-242.0
21:04:25.328;188.0;44.0
21:04:25.368;-101.0;-475.0
21:04:25.408;-279.0;-750.0
21:04:25.448;-492.0;5403.0
21:04:25.488;-287.0;2114.0
21:04:25.528;-32.0;560.0
21:04:25.568;143.0;117.0
21:04:25.608;383.0;263.0
21:04:25.648;636.0;892.0
21:04:25.688;599.0;1158.0
21:04:25.728;227.0;255.0
21:04:25.768;-35.0;-381.0
21:04:25.808;-119.0;-592.0
21:04:25.848;-126.0;-552.0
21:04:25.888;-126.0;-568.0
21:04:25.928;-110.0;-568.0
21:04:25.968;-115.0;-576.0
21:04:26.008;-114.0;-556.0
21:04:26.048;-116.0;-513.0
21:04:26.088;-130.0;-456.0
21:04:26.128;50.0;60.0
21:04:26.168;-11.0;-79.0
21:04:26.208;-97.0;-348.0
21:04:26.248;477.0;-141.0
21:04:26.288;-52.0;-291.0
21:04:26.328;-6.0;-18.0
21:04:26.368;47.0;211.0
21:04:26.408;239.0;618.0
21:04:26.448;524.0;1234.0
21:04:26.488;680.0;1816.0
21:04:26.528;460.0;1584.0
21:04:26.568;106.0;698.0
21:04:26.608;-82.0;278.0
21:04:23.868;-85.0;116.0
21:04:23.908;-143.0;-45.0
21:04:23.948;-188.0;-159.0
21:04:23.988;-227.0;-227.0
21:04:24.028;-248.0;-255.0
21:04:24.068;-200.0;-171.0
21:04:24.108;32.0;349.0
21:04:24.148;-68.0;104.0
21:04:24.188;-174.0;-236.0
21:04:24.228;535.0;245.0
21:04:24.268;13.0;-67.0
21:04:24.308;-15.0;86.0
21:04:24.348;-4.0;315.0
21:04:24.388;186.0;664.0
21:04:24.428;409.0;1284.0
21:04:24.468;571.0;1903.0
21:04:24.508;363.0;1506.0
21:04:24.548;-47.0;518.0
21:04:24.588;-267.0;-13.0
21:04:24.628;-297.0;-176.0
21:04:24.668;-320.0;-228.0
21:04:24.708;-346.0;-311.0
21:04:24.748;-353.0;-387.0
21:04:24.788;-332.0;-360.0
21:04:24.828;-283.0;-340.0
21:04:24.868;-279.0;-322.0
21:04:24.908;-155.0;-9.0
21:04:24.948;-58.0;333.0
21:04:24.988;-227.0;-126.0
21:04:25.028;-271.0;-323.0
21:04:25.068;537.0;3846.0
21:04:25.108;253.0;1735.0
21:04:25.148;108.0;627.0
21:04:25.188;137.0;338.0
21:04:25.228;304.0;509.0
21:04:25.268;526.0;1097.0
21:04:25.308;591.0;1597.0
21:04:25.348;293.0;868.0
21:04:25.388;1.0;-12.0
21:04:25.428;-170.0;-371.0
21:04:25.468;-129.0;-456.0
21:04:25.508;-192.0;-535.0
21:04:25.548;-200.0;-568.0
21:04:25.588;-221.0;-659.0
21:04:25.628;-283.0;-664.0
21:04:25.668;-290.0;-616.0
21:04:25.708;-303.0;-634.0
21:04:25.748;-188.0;-341.0
21:04:25.788;-131.0;121.0
21:04:25.828;-246.0;-268.0
21:04:25.868;-346.0;-551.0
21:04:25.908;493.0;3120.0
21:04:25.948;251.0;1334.0
21:04:25.988;94.0;443.0
21:04:26.028;109.0;222.0
21:04:26.068;275.0;420.0
21:04:26.108;516.0;1082.0
21:04:26.148;545.0;1527.0
21:04:26.188;217.0;864.0
21:04:26.228;-67.0;72.0
21:04:26.268;-204.0;-274.0
21:04:26.308;-255.0;-413.0
21:04:26.348;-216.0;-407.0
21:04:26.388;-234.0;-492.0
21:04:26.428;-262.0;-561.0
21:04:26.468;-271.0;-539.0
21:04:26.508;-272.0;-547.0
21:04:26.548;-202.0;-229.0
21:04:26.588;-42.0;122.0
21:04:26.628;-274.0;-396.0
21:04:26.668;-362.0;-612.0
21:04:26.708;-256.0;5534.0
21:04:26.748;-98.0;2308.0
21:04:26.788;11.0;720.0
21:04:26.828;163.0;168.0
21:04:26.868;375.0;168.0
21:04:26.908;637.0;725.0
21:04:26.948;656.0;1032.0
21:04:26.988;316.0;205.0
21:04:27.028;32.0;-478.0
21:04:27.068;-122.0;-759.0
21:04:27.108;-120.0;-774.0
21:04:27.148;-105.0;-754.0
21:04:27.188;-167.0;-841.0
21:04:27.228;-215.0;-852.0
21:04:27.268;-254.0;-860.0
21:04:27.308;-255.0;-834.0
21:04:27.348;-172.0;-507.0
21:04:27.388;3.0;-51.0
21:04:27.428;-236.0;-602.0
21:04:27.468;-283.0;-800.0
21:04:27.508;3.0;5160.0
21:04:27.548;-34.0;1978.0
21:04:27.588;-52.0;393.0
21:04:27.628;25.0;-164.0
21:04:27.668;283.0;-12.0
21:04:27.708;547.0;606.0
21:04:27.748;585.0;989.0
21:04:27.788;242.0;142.0
21:04:27.828;-49.0;-609.0
21:04:28.227;-125.0;-882.0
21:04:28.267;-195.0;-983.0
21:04:28.307;-238.0;-1046.0
21:04:28.347;-274.0;-1085.0
21:04:28.387;-229.0;-1034.0
21:04:28.427;-261.0;-1005.0
21:04:28.467;-249.0;-920.0
21:04:28.507;-41.0;-336.0
21:04:28.547;106.0;-191.0
21:04:28.587;-161.0;-676.0
21:04:28.627;-211.0;-1082.0
21:04:28.667;-614.0;2829.0
21:04:28.707;-315.0;982.0
21:04:28.747;-66.0;173.0
21:04:28.787;182.0;-6.0
21:04:28.827;477.0;396.0
21:04:28.867;770.0;1084.0
21:04:28.907;685.0;1254.0
21:04:28.947;334.0;309.0
21:04:28.987;30.0;-378.0
21:04:29.027;-109.0;-674.0
21:04:29.067;-108.0;-679.0
21:04:29.107;-130.0;-781.0
21:04:29.147;-221.0;-923.0
21:04:29.187;-186.0;-941.0
21:04:29.227;-118.0;-959.0
21:04:29.267;-76.0;-960.0
21:04:29.307;76.0;-466.0
21:04:29.347;238.0;-420.0
21:04:29.387;-17.0;-905.0
21:04:29.427;46.0;-1505.0
21:04:29.467;-492.0;366.0
21:04:29.507;-178.0;-277.0
21:04:29.547;-46.0;-602.0
21:04:29.587;225.0;-446.0
21:04:29.627;489.0;-73.0
21:04:29.667;713.0;552.0
21:04:29.707;516.0;405.0
21:04:29.747;250.0;-541.0
21:04:29.787;22.0;-1190.0
21:04:29.827;-170.0;-1425.0
21:04:29.867;-196.0;-1464.0
21:04:29.907;-309.0;-1597.0
21:04:29.947;-263.0;-1647.0
21:04:29.987;-383.0;-1844.0
21:04:30.027;-443.0;-1794.0
21:04:30.067;-230.0;-1273.0
21:04:30.107;-207.0;-1437.0
21:04:30.147;-300.0;-1782.0
21:04:30.187;225.0;-1873.0
21:04:30.227;-264.0;-1808.0
21:04:30.267;-212.0;-1407.0
21:04:30.307;-198.0;-1131.0
21:04:30.347;5.0;-702.0
21:04:30.387;293.0;-47.0
21:04:30.427;438.0;727.0
21:04:30.467;186.0;430.0
21:04:30.507;-150.0;-551.0
21:04:30.547;-291.0;-1023.0
21:04:30.587;-361.0;-1136.0
21:04:30.627;-349.0;-1097.0
21:04:30.667;-321.0;-1156.0
21:04:30.707;-381.0;-1227.0
21:04:30.747;-494.0;-1321.0
21:04:30.787;-465.0;-1192.0
21:04:30.827;-308.0;-744.0
21:04:30.867;-470.0;-1042.0
21:04:30.907;-519.0;-1338.0
21:04:30.947;449.0;-343.0
21:04:30.987;35.0;-898.0
21:04:31.027;-201.0;-1005.0
21:04:31.067;-204.0;-829.0
21:04:31.107;-101.0;-503.0
21:04:31.147;215.0;204.0
21:04:31.187;480.0;923.0
21:04:31.227;188.0;338.0
21:04:31.267;-167.0;-649.0
21:04:31.307;-324.0;-1113.0
21:04:31.347;-337.0;-1172.0
21:04:31.387;-332.0;-1204.0
21:04:31.427;-343.0;-1201.0
21:04:31.467;-248.0;-1203.0
21:04:31.507;-246.0;-1210.0
21:04:31.547;-231.0;-1263.0
21:04:31.587;-55.0;-720.0
21:04:31.627;-47.0;-662.0
21:04:31.667;-122.0;-1007.0
21:04:31.707;-80.0;-1539.0
21:04:31.747;-625.0;1032.0
21:04:31.787;-270.0;24.0
21:04:31.827;-106.0;-368.0
21:04:31.867;91.0;-382.0
21:04:31.907;371.0;75.0
21:04:31.947;598.0;733.0
21:04:31.987;611.0;890.0
21:04:32.027;192.0;-68.0
21:04:32.067;-56.0;-571.0
21:04:32.107;-113.0;-775.0
21:04:32.147;-70.0;-744.0
21:04:32.187;-42.0;-699.0
21:04:32.169;-73.0;-728.0
21:04:32.209;-232.0;-862.0
21:04:32.249;-195.0;-501.0
21:04:32.289;25.0;-90.0
21:04:32.329;-114.0;-473.0
21:04:32.369;-297.0;-732.0
21:04:32.409;189.0;4635.0
21:04:32.449;54.0;1822.0
21:04:32.489;-17.0;434.0
21:04:32.529;138.0;103.0
21:04:32.569;243.0;198.0
21:04:32.609;366.0;775.0
21:04:32.649;480.0;1228.0
21:04:32.689;208.0;430.0
21:04:32.729;-77.0;-324.0
21:04:32.769;-159.0;-530.0
21:04:32.809;-151.0;-396.0
21:04:32.849;-85.0;-418.0
21:04:32.889;-119.0;-391.0
21:04:32.929;-143.0;-371.0
21:04:32.969;-75.0;-331.0
21:04:33.009;-52.0;-297.0
21:04:33.049;-13.0;-112.0
21:04:33.089;46.0;275.0
21:04:33.129;-189.0;-15.0
21:04:33.169;-179.0;-232.0
21:04:33.209;779.0;2125.0
21:04:33.249;323.0;955.0
21:04:33.289;34.0;353.0
21:04:33.329;6.0;273.0
21:04:33.369;170.0;580.0
21:04:33.409;443.0;1216.0
21:04:33.449;522.0;1840.0
21:04:33.489;210.0;1115.0
21:04:33.529;-91.0;176.0
21:04:33.569;-255.0;-347.0
21:04:33.609;-240.0;-461.0
21:04:33.649;-174.0;-505.0
21:04:33.689;-187.0;-602.0
21:04:33.729;-165.0;-681.0
21:04:33.769;-259.0;-770.0
21:04:33.809;-269.0;-834.0
21:04:33.849;-185.0;-887.0
21:04:33.889;51.0;-413.0
21:04:33.929;185.0;-309.0
21:04:33.969;-39.0;-919.0
21:04:34.009;-158.0;-1330.0
21:04:34.049;-448.0;3131.0
21:04:34.089;-240.0;824.0
21:04:34.129;-17.0;-232.0
21:04:34.169;119.0;-555.0
21:04:34.209;440.0;-222.0
21:04:34.249;690.0;359.0
21:04:34.289;630.0;555.0
21:04:34.329;226.0;-368.0
21:04:34.369;29.0;-1069.0
21:04:34.409;-63.0;-1352.0
21:04:34.449;-105.0;-1342.0
21:04:34.489;-110.0;-1329.0
21:04:34.529;-175.0;-1408.0
21:04:34.569;-204.0;-1430.0
21:04:34.609;-146.0;-1375.0
21:04:34.649;-149.0;-1301.0
21:04:34.689;-119.0;-1166.0
21:04:34.729;9.0;-613.0
21:04:34.769;-96.0;-747.0
21:04:34.809;-199.0;-1012.0
21:04:34.849;716.0;96.0
21:04:34.889;299.0;-336.0
21:04:34.929;137.0;-361.0
21:04:34.969;178.0;-205.0
21:04:35.009;401.0;281.0
21:04:35.049;628.0;1011.0
21:04:35.089;769.0;1613.0
21:04:35.129;449.0;1130.0
21:04:35.169;46.0;249.0
21:04:35.209;-92.0;-204.0
21:04:35.249;-159.0;-276.0
21:04:35.289;-125.0;-283.0
21:04:35.329;-170.0;-422.0
21:04:35.369;-269.0;-499.0
21:04:35.409;-223.0;-473.0
21:04:35.449;-273.0;-448.0
21:04:35.489;-36.0;128.0
21:04:35.529;84.0;302.0
21:04:35.569;-122.0;-250.0
21:04:35.609;-133.0;-617.0
21:04:35.649;-534.0;3505.0
21:04:35.689;-142.0;1536.0
21:04:35.729;57.0;659.0
21:04:35.769;177.0;430.0
21:04:35.809;428.0;767.0
21:04:35.849;656.0;1452.0
21:04:35.889;493.0;1453.0
21:04:35.929;64.0;511.0
21:04:35.969;-133.0;-136.0
21:04:36.009;-186.0;-299.0
21:04:36.049;-192.0;-389.0
21:04:36.089;-222.0;-473.0
21:04:36.129;-248.0;-482.0
21:04:36.375;-248.0;-548.0
21:04:36.415;-252.0;-465.0
21:04:36.455;-78.0;-42.0
21:04:36.495;30.0;353.0
21:04:36.535;-83.0;-130.0
21:04:36.575;-181.0;-459.0
21:04:36.615;-47.0;5963.0
21:04:36.655;-128.0;2547.0
21:04:36.695;-28.0;825.0
21:04:36.735;190.0;373.0
21:04:36.775;387.0;375.0
21:04:36.815;598.0;1017.0
21:04:36.855;542.0;1329.0
21:04:36.895;304.0;490.0
21:04:36.935;-48.0;-266.0
21:04:36.975;-151.0;-585.0
21:04:37.015;-211.0;-698.0
21:04:37.055;-193.0;-742.0
21:04:37.095;-169.0;-762.0
21:04:37.135;-214.0;-798.0
21:04:37.175;-158.0;-782.0
21:04:37.215;-259.0;-711.0
21:04:37.255;-47.0;-90.0
21:04:37.295;26.0;-236.0
21:04:37.335;-229.0;-672.0
21:04:37.375;308.0;-754.0
21:04:37.415;-289.0;-650.0
21:04:37.455;-154.0;-297.0
21:04:37.495;9.0;42.0
21:04:37.535;120.0;449.0
21:04:37.575;444.0;1119.0
21:04:37.615;589.0;1850.0
21:04:37.655;315.0;1494.0
21:04:37.695;-7.0;494.0
21:04:37.735;-158.0;-29.0
21:04:37.775;-87.0;-175.0
21:04:37.815;-116.0;-256.0
21:04:37.855;-143.0;-344.0
21:04:37.895;-151.0;-415.0
21:04:37.935;-204.0;-523.0
21:04:37.975;-250.0;-562.0
21:04:38.015;-57.0;-85.0
21:04:38.055;-99.0;-283.0
21:04:38.095;-306.0;-606.0
21:04:38.135;40.0;-1169.0
21:04:38.175;-806.0;-245.0
21:04:38.215;-453.0;-261.0
21:04:38.255;-195.0;-149.0
21:04:38.295;-37.0;136.0
21:04:38.335;366.0;710.0
21:04:38.375;624.0;1429.0
21:04:38.415;538.0;1363.0
21:04:38.455;176.0;367.0
21:04:38.495;40.0;-158.0
21:04:38.535;-88.0;-499.0
21:04:38.575;-108.0;-549.0
21:04:38.615;-167.0;-647.0
21:04:38.655;-175.0;-745.0
21:04:38.695;-237.0;-859.0
21:04:38.735;-205.0;-834.0
21:04:38.775;5.0;-372.0
21:04:38.815;40.0;-452.0
21:04:38.855;-135.0;-824.0
21:04:38.895;233.0;-1288.0
21:04:38.935;-537.0;-911.0
21:04:38.975;-258.0;-624.0
21:04:39.015;-49.0;-328.0
21:04:39.055;144.0;45.0
21:04:39.095;356.0;628.0
21:04:39.135;681.0;1470.0
21:04:39.175;521.0;1275.0
21:04:39.215;177.0;389.0
21:04:39.255;-115.0;-246.0
21:04:39.295;-108.0;-335.0
21:04:39.335;-197.0;-432.0
21:04:39.375;-218.0;-557.0
21:04:39.415;-269.0;-641.0
21:04:39.455;-355.0;-673.0
21:04:39.495;-343.0;-638.0
21:04:39.535;-204.0;-255.0
21:04:39.575;11.0;55.0
21:04:39.615;-192.0;-492.0
21:04:39.655;-380.0;-710.0
21:04:39.695;-436.0;5611.0
21:04:39.735;-230.0;2285.0
21:04:39.775;-115.0;634.0
21:04:39.815;70.0;148.0
21:04:39.855;258.0;262.0
21:04:39.895;575.0;907.0
21:04:39.935;676.0;1270.0
21:04:39.975;290.0;374.0
21:04:40.015;27.0;-314.0
21:04:40.055;-142.0;-600.0
21:04:40.095;-146.0;-623.0
21:04:40.135;-192.0;-620.0
21:04:40.175;-260.0;-684.0
21:04:40.215;-274.0;-637.0
21:04:40.255;-302.0;-733.0
21:04:40.295;-289.0;-648.0
21:04:40.335;1.0;-48.0
21:04:41.019;10.0;32.0
21:04:41.059;-265.0;-480.0
21:04:41.099;-468.0;5392.0
21:04:41.139;-322.0;2188.0
21:04:41.179;-61.0;721.0
21:04:41.219;-587.0;-411.0
21:04:41.259;392.0;449.0
21:04:41.299;589.0;922.0
21:04:41.339;535.0;1082.0
21:04:41.379;-53.0;6.0
21:04:41.419;-680.0;-917.0
21:04:41.459;-574.0;-956.0
21:04:41.499;-391.0;-867.0
21:04:41.539;-368.0;-853.0
21:04:41.579;-299.0;-848.0
21:04:41.619;-358.0;-1017.0
21:04:41.659;-480.0;-1062.0
21:04:41.699;-150.0;-463.0
21:04:41.739;-31.0;-388.0
21:04:41.779;-156.0;-794.0
21:04:41.819;-161.0;-1225.0
21:04:41.859;-394.0;2114.0
21:04:41.899;-192.0;546.0
21:04:41.939;-48.0;-116.0
21:04:41.979;209.0;-150.0
21:04:42.019;656.0;333.0
21:04:42.059;914.0;1008.0
21:04:42.099;754.0;957.0
21:04:42.139;325.0;-190.0
21:04:42.179;-84.0;-959.0
21:04:42.219;-254.0;-1288.0
21:04:42.259;-211.0;-1184.0
21:04:42.299;-253.0;-1212.0
21:04:42.339;-191.0;-1200.0
21:04:42.379;-269.0;-1292.0
21:04:42.419;-207.0;-1263.0
21:04:42.459;-172.0;-1151.0
21:04:42.499;-187.0;-1055.0
21:04:42.539;-134.0;-543.0
21:04:42.579;-11.0;-620.0
21:04:42.619;-137.0;-988.0
21:04:42.659;372.0;-1106.0
21:04:42.699;-104.0;-992.0
21:04:42.739;5.0;-628.0
21:04:42.779;229.0;-204.0
21:04:42.819;344.0;228.0
21:04:42.859;529.0;834.0
21:04:42.899;796.0;1712.0
21:04:42.939;588.0;1501.0
21:04:42.979;206.0;493.0
21:04:43.019;-12.0;-89.0
21:04:43.059;-78.0;-269.0
21:04:43.099;-80.0;-290.0
21:04:43.139;-72.0;-305.0
21:04:43.179;-48.0;-292.0
21:04:43.219;-88.0;-294.0
21:04:43.259;-160.0;-341.0
21:04:43.299;-150.0;-293.0
21:04:43.339;2.0;-56.0
21:04:43.379;142.0;432.0
21:04:43.419;-4.0;84.0
21:04:43.459;-162.0;-242.0
21:04:43.499;800.0;2910.0
21:04:43.539;390.0;1285.0
21:04:43.579;238.0;546.0
21:04:43.619;210.0;466.0
21:04:43.659;310.0;632.0
21:04:43.699;556.0;1297.0
21:04:43.739;654.0;1812.0
21:04:43.779;378.0;1118.0
21:04:43.819;36.0;211.0
21:04:43.859;-159.0;-225.0
21:04:43.899;-129.0;-286.0
21:04:43.939;-124.0;-250.0
21:04:43.979;-58.0;-168.0
21:04:44.019;-64.0;-272.0
21:04:44.059;-35.0;-224.0
21:04:44.099;-22.0;-59.0
21:04:44.139;29.0;363.0
21:04:44.179;-99.0;-173.0
21:04:44.219;-107.0;-339.0
21:04:44.259;780.0;2758.0
21:04:44.299;495.0;1265.0
21:04:44.339;280.0;470.0
21:04:44.379;208.0;225.0
21:04:44.419;352.0;370.0
21:04:44.459;591.0;985.0
21:04:44.499;658.0;1490.0
21:04:44.539;339.0;797.0
21:04:44.579;5.0;-102.0
21:04:44.619;-104.0;-540.0
21:04:44.659;-129.0;-682.0
21:04:44.699;-161.0;-749.0
21:04:44.739;-180.0;-788.0
21:04:44.779;-120.0;-754.0
21:04:44.819;-196.0;-886.0
21:04:44.859;-178.0;-899.0
21:04:44.899;-87.0;-590.0
21:04:44.939;23.0;-176.0
21:04:44.979;-208.0;-625.0
21:04:44.444;-336.0;-932.0
21:04:44.484;-131.0;-694.0
21:04:44.524;-106.0;-529.0
21:04:44.564;36.0;-185.0
21:04:44.604;220.0;240.0
21:04:44.644;453.0;936.0
21:04:44.684;599.0;1660.0
21:04:44.724;300.0;1069.0
21:04:44.764;8.0;113.0
21:04:44.804;-232.0;-416.0
21:04:44.844;-275.0;-542.0
21:04:44.884;-197.0;-547.0
21:04:44.924;-179.0;-570.0
21:04:44.964;-201.0;-625.0
21:04:45.004;-149.0;-662.0
21:04:45.044;-159.0;-655.0
21:04:45.084;-295.0;-685.0
21:04:45.124;-219.0;-570.0
21:04:45.164;16.0;-43.0
21:04:45.204;12.0;-160.0
21:04:45.244;-146.0;-488.0
21:04:45.284;43.0;-980.0
21:04:45.324;-670.0;-218.0
21:04:45.364;-355.0;-155.0
21:04:45.404;-111.0;36.0
21:04:45.444;94.0;314.0
21:04:45.484;371.0;885.0
21:04:45.524;659.0;1700.0
21:04:45.564;576.0;1800.0
21:04:45.604;161.0;769.0
21:04:45.644;-83.0;57.0
21:04:45.684;-161.0;-176.0
21:04:45.724;-144.0;-223.0
21:04:45.764;-52.0;-239.0
21:04:45.804;-110.0;-310.0
21:04:45.844;-168.0;-373.0
21:04:45.884;-122.0;-340.0
21:04:45.924;-149.0;-310.0
21:04:45.964;-160.0;-271.0
21:04:46.004;-42.0;61.0
21:04:46.044;214.0;463.0
21:04:46.084;49.0;-17.0
21:04:46.124;-152.0;-300.0
21:04:46.164;-231.0;5894.0
21:04:46.204;-79.0;2618.0
21:04:46.244;44.0;975.0
21:04:46.284;169.0;369.0
21:04:46.324;411.0;491.0
21:04:46.364;691.0;1056.0
21:04:46.404;698.0;1388.0
21:04:46.444;210.0;455.0
21:04:46.484;-53.0;-285.0
21:04:46.524;-182.0;-623.0
21:04:46.564;-135.0;-568.0
21:04:46.604;-86.0;-571.0
21:04:46.644;-148.0;-570.0
21:04:46.684;-186.0;-559.0
21:04:46.724;-155.0;-559.0
21:04:46.764;-117.0;-485.0
21:04:46.804;17.0;6.0
21:04:46.844;-83.0;-244.0
21:04:46.884;-142.0;-521.0
21:04:46.924;734.0;550.0
21:04:46.964;220.0;24.0
21:04:47.004;-2.0;-94.0
21:04:47.044;22.0;67.0
21:04:47.084;190.0;397.0
21:04:47.124;411.0;1059.0
21:04:47.164;557.0;1698.0
21:04:47.204;311.0;1208.0
21:04:47.244;7.0;349.0
21:04:47.284;-219.0;-223.0
21:04:47.324;-291.0;-368.0
21:04:47.364;-278.0;-397.0
21:04:47.404;-299.0;-486.0
21:04:47.444;-352.0;-599.0
21:04:47.484;-354.0;-609.0
21:04:47.524;-331.0;-602.0
21:04:47.564;-133.0;-112.0
21:04:47.604;-115.0;-283.0
21:04:47.644;-300.0;-658.0
21:04:47.684;303.0;-410.0
21:04:47.724;-131.0;-581.0
21:04:47.764;-156.0;-323.0
21:04:47.804;31.0;35.0
21:04:47.844;181.0;425.0
21:04:47.884;487.0;1121.0
21:04:47.924;727.0;1928.0
21:04:47.964;516.0;1600.0
21:04:48.004;218.0;654.0
21:04:48.044;-45.0;-9.0
21:04:48.084;-111.0;-240.0
21:04:48.124;-53.0;-231.0
21:04:48.164;-63.0;-337.0
21:04:48.204;-114.0;-391.0
21:04:48.244;-161.0;-476.0
21:04:48.284;-193.0;-464.0
21:04:48.324;-203.0;-468.0
21:04:48.364;56.0;104.0
21:04:48.404;12.0;-152.0
21:04:48.597;-200.0;-468.0
21:04:48.637;-704.0;459.0
21:04:48.677;-317.0;174.0
21:04:48.717;-23.0;134.0
21:04:48.757;220.0;370.0
21:04:48.797;499.0;896.0
21:04:48.837;759.0;1609.0
21:04:48.877;646.0;1628.0
21:04:48.917;224.0;655.0
21:04:48.957;6.0;39.0
21:04:48.997;-102.0;-224.0
21:04:49.037;-47.0;-237.0
21:04:49.077;-48.0;-281.0
21:04:49.117;-82.0;-329.0
21:04:49.157;-97.0;-392.0
21:04:49.197;-133.0;-461.0
21:04:49.237;54.0;-7.0
21:04:49.277;126.0;-9.0
21:04:49.317;-29.0;-365.0
21:04:49.357;165.0;-859.0
21:04:49.397;-547.0;537.0
21:04:49.437;-136.0;317.0
21:04:49.477;86.0;275.0
21:04:49.517;275.0;474.0
21:04:49.557;533.0;914.0
21:04:49.597;770.0;1583.0
21:04:49.637;621.0;1491.0
21:04:49.677;215.0;559.0
21:04:49.717;47.0;15.0
21:04:49.757;-109.0;-240.0
21:04:49.797;-81.0;-272.0
21:04:49.837;-162.0;-406.0
21:04:49.877;-215.0;-511.0
21:04:49.917;-224.0;-575.0
21:04:49.957;-99.0;-205.0
21:04:49.997;55.0;178.0
21:04:50.037;-236.0;-408.0
21:04:50.077;-347.0;-611.0
21:04:50.117;-121.0;5530.0
21:04:50.157;-76.0;2302.0
21:04:50.197;-27.0;677.0
21:04:50.237;84.0;146.0
21:04:50.277;242.0;157.0
21:04:50.317;572.0;861.0
21:04:50.357;612.0;1227.0
21:04:50.397;194.0;330.0
21:04:50.437;-122.0;-424.0
21:04:50.477;-286.0;-760.0
21:04:50.517;-283.0;-745.0
21:04:50.557;-277.0;-829.0
21:04:50.597;-319.0;-857.0
21:04:50.637;-358.0;-914.0
21:04:50.677;-344.0;-927.0
21:04:50.717;-336.0;-879.0
21:04:50.757;-224.0;-761.0
21:04:50.797;-97.0;-339.0
21:04:50.837;-152.0;-546.0
21:04:50.877;-303.0;-828.0
21:04:50.917;719.0;118.0
21:04:50.957;320.0;-239.0
21:04:50.997;87.0;-267.0
21:04:51.037;96.0;-50.0
21:04:51.077;191.0;354.0
21:04:51.117;407.0;1020.0
21:04:51.157;608.0;1799.0
21:04:51.197;387.0;1335.0
21:04:51.237;5.0;303.0
21:04:51.277;-182.0;-254.0
21:04:51.317;-207.0;-359.0
21:04:51.357;-251.0;-399.0
21:04:51.397;-218.0;-471.0
21:04:51.437;-179.0;-542.0
21:04:51.477;-263.0;-621.0
21:04:51.517;-259.0;-637.0
21:04:51.557;-210.0;-599.0
21:04:51.597;-252.0;-564.0
21:04:51.637;-181.0;-282.0
21:04:51.677;-34.0;103.0
21:04:51.717;-218.0;-362.0
21:04:51.757;-301.0;-614.0
21:04:51.797;162.0;4958.0
21:04:51.837;117.0;2071.0
21:04:51.877;70.0;618.0
21:04:51.917;159.0;182.0
21:04:51.957;350.0;279.0
21:04:51.997;589.0;891.0
21:04:52.037;586.0;1315.0
21:04:52.077;276.0;561.0
21:04:52.117;-22.0;-176.0
21:04:52.157;-55.0;-463.0
21:04:52.197;-80.0;-512.0
21:04:52.237;12.0;-443.0
21:04:52.277;-95.0;-534.0
21:04:52.317;-183.0;-631.0
21:04:52.357;-148.0;-555.0
21:04:52.397;-134.0;-546.0
21:04:52.437;-122.0;-381.0
21:04:52.477;22.0;102.0
21:04:52.517;-48.0;-165.0
21:04:52.557;-174.0;-482.0
21:04:52.933;589.0;105.0
21:04:52.973;236.0;38.0
21:04:53.013;142.0;123.0
21:04:53.053;226.0;389.0
21:04:53.093;389.0;967.0
21:04:53.133;597.0;1682.0
21:04:53.173;451.0;1689.0
21:04:53.213;24.0;684.0
21:04:53.253;-207.0;2.0
21:04:53.293;-231.0;-230.0
21:04:53.333;-228.0;-331.0
21:04:53.373;-212.0;-420.0
21:04:53.413;-183.0;-473.0
21:04:53.453;-255.0;-609.0
21:04:53.493;-335.0;-704.0
21:04:53.533;-381.0;-776.0
21:04:53.573;-371.0;-810.0
21:04:53.613;-160.0;-290.0
21:04:53.653;-152.0;-386.0
21:04:53.693;-319.0;-752.0
21:04:53.733;35.0;-1214.0
21:04:53.773;-729.0;-809.0
21:04:53.813;-402.0;-520.0
21:04:53.853;-121.0;-214.0
21:04:53.893;88.0;163.0
21:04:53.933;383.0;769.0
21:04:53.973;573.0;1557.0
21:04:54.013;420.0;1421.0
21:04:54.053;21.0;329.0
21:04:54.093;-174.0;-285.0
21:04:54.133;-255.0;-521.0
21:04:54.173;-229.0;-576.0
21:04:54.213;-203.0;-659.0
21:04:54.253;-168.0;-729.0
21:04:54.293;-279.0;-856.0
21:04:54.333;-264.0;-833.0
21:04:54.373;-293.0;-836.0
21:04:54.413;-267.0;-795.0
21:04:54.453;-37.0;-277.0
21:04:54.493;14.0;-309.0
21:04:54.533;-192.0;-657.0
21:04:54.573;-72.0;-1156.0
21:04:54.613;-689.0;332.0
21:04:54.653;-375.0;21.0
21:04:54.693;-112.0;29.0
21:04:54.733;169.0;239.0
21:04:54.773;405.0;711.0
21:04:54.813;568.0;1420.0
21:04:54.853;514.0;1550.0
21:04:54.893;102.0;491.0
21:04:54.933;-199.0;-219.0
21:04:54.973;-281.0;-461.0
21:04:55.013;-273.0;-457.0
21:04:55.053;-252.0;-467.0
21:04:55.093;-283.0;-512.0
21:04:55.133;-258.0;-548.0
21:04:55.173;-297.0;-614.0
21:04:55.213;-243.0;-420.0
21:04:55.253;-147.0;15.0
21:04:55.293;-315.0;-401.0
21:04:55.333;-283.0;-586.0
21:04:55.373;652.0;2169.0
21:04:55.413;280.0;796.0
21:04:55.453;8.0;124.0
21:04:55.493;86.0;128.0
21:04:55.533;183.0;414.0
21:04:55.573;526.0;1083.0
21:04:55.613;626.0;1600.0
21:04:55.653;289.0;976.0
21:04:55.693;-115.0;8.0
21:04:55.733;-223.0;-365.0
21:04:55.773;-322.0;-466.0
21:04:55.813;-261.0;-501.0
21:04:55.853;-214.0;-530.0
21:04:55.893;-248.0;-603.0
21:04:55.933;-210.0;-583.0
21:04:55.973;-227.0;-308.0
21:04:56.013;-137.0;2.0
21:04:56.053;-333.0;-477.0
21:04:56.093;-443.0;-705.0
21:04:56.133;-69.0;4868.0
21:04:56.173;-111.0;1940.0
21:04:56.213;-131.0;448.0
21:04:56.253;1.0;63.0
21:04:56.293;216.0;200.0
21:04:56.333;471.0;854.0
21:04:56.373;556.0;1337.0
21:04:56.413;241.0;514.0
21:04:56.453;-152.0;-353.0
21:04:56.493;-275.0;-681.0
21:04:56.533;-274.0;-711.0
21:04:56.573;-270.0;-699.0
21:04:56.613;-279.0;-698.0
21:04:56.653;-313.0;-736.0
21:04:56.693;-305.0;-764.0
21:04:56.733;-210.0;-486.0
21:04:56.773;-136.0;-44.0
21:04:56.813;-300.0;-539.0
21:04:56.853;-335.0;-733.0
21:04:56.893;704.0;2596.0
21:04:56.778;316.0;1018.0
21:04:56.818;123.0;359.0
21:04:56.858;129.0;282.0
21:04:56.898;373.0;806.0
21:04:56.938;604.0;1538.0
21:04:56.978;365.0;1074.0
21:04:57.018;-12.0;92.0
21:04:57.058;-162.0;-395.0
21:04:57.098;-230.0;-624.0
21:04:57.138;-247.0;-623.0
21:04:57.178;-296.0;-719.0
21:04:57.218;-325.0;-803.0
21:04:57.258;-370.0;-824.0
21:04:57.298;-357.0;-799.0
21:04:57.338;-141.0;-250.0
21:04:57.378;-186.0;-400.0
21:04:57.418;-341.0;-738.0
21:04:57.458;-81.0;-1189.0
21:04:57.498;-817.0;-366.0
21:04:57.538;-474.0;-301.0
21:04:57.578;-146.0;-134.0
21:04:57.618;115.0;199.0
21:04:57.658;365.0;807.0
21:04:57.698;651.0;1639.0
21:04:57.738;494.0;1631.0
21:04:57.778;139.0;597.0
21:04:57.818;-118.0;-78.0
21:04:57.858;-159.0;-277.0
21:04:57.898;-144.0;-304.0
21:04:57.938;-154.0;-417.0
21:04:57.978;-151.0;-508.0
21:04:58.018;-191.0;-578.0
21:04:58.058;-168.0;-547.0
21:04:58.098;-236.0;-586.0
21:04:58.138;-106.0;-153.0
21:04:58.178;-47.0;-271.0
21:04:58.218;-296.0;-692.0
21:04:58.258;84.0;-1189.0
21:04:58.298;-771.0;-653.0
21:04:58.338;-321.0;-412.0
21:04:58.378;-30.0;-205.0
21:04:58.418;199.0;126.0
21:04:58.458;508.0;680.0
21:04:58.498;812.0;1449.0
21:04:58.538;645.0;1330.0
21:04:58.578;302.0;327.0
21:04:58.618;-9.0;-330.0
21:04:58.658;-64.0;-558.0
21:04:58.698;24.0;-563.0
21:04:58.738;4.0;-621.0
21:04:58.778;-66.0;-671.0
21:04:58.818;-81.0;-732.0
21:04:58.858;-15.0;-481.0
21:04:58.898;30.0;-159.0
21:04:58.938;-121.0;-623.0
21:04:58.978;-186.0;-840.0
21:04:59.018;377.0;3592.0
21:04:59.058;144.0;1255.0
21:04:59.098;110.0;111.0
21:04:59.138;263.0;-210.0
21:04:59.178;333.0;-80.0
21:04:59.218;558.0;587.0
21:04:59.258;631.0;1010.0
21:04:59.298;282.0;306.0
21:04:59.338;-104.0;-536.0
21:04:59.378;-222.0;-828.0
21:04:59.418;-205.0;-861.0
21:04:59.458;-177.0;-902.0
21:04:59.498;-175.0;-888.0
21:04:59.538;-199.0;-952.0
21:04:59.578;-193.0;-930.0
21:04:59.618;-105.0;-740.0
21:04:59.658;-1.0;-268.0
21:04:59.698;-144.0;-484.0
21:04:59.738;-209.0;-718.0
21:04:59.778;736.0;925.0
21:04:59.818;412.0;226.0
21:04:59.858;95.0;-65.0
21:04:59.898;17.0;18.0
21:04:59.938;124.0;360.0
21:04:59.978;422.0;1105.0
21:05:00.018;579.0;1761.0
21:05:00.058;254.0;1125.0
21:05:00.098;-95.0;183.0
21:05:00.138;-251.0;-246.0
21:05:00.178;-310.0;-398.0
21:05:00.218;-282.0;-431.0
21:05:00.258;-247.0;-495.0
21:05:00.298;-287.0;-587.0
21:05:00.338;-335.0;-627.0
21:05:00.378;-245.0;-533.0
21:05:00.418;-203.0;-451.0
21:05:00.458;-117.0;-341.0
21:05:00.498;37.0;101.0
21:05:00.538;-125.0;-218.0
21:05:00.578;-176.0;-493.0
21:05:00.618;925.0;962.0
21:05:00.658;520.0;384.0
21:05:00.698;198.0;128.0
21:05:00.738;106.0;152.0
21:05:00.888;267.0;502.0
21:05:00.928;526.0;1584.0
21:05:00.968;412.0;1504.0
21:05:01.008;113.0;565.0
21:05:01.048;-131.0;8.0
21:05:01.088;-141.0;-180.0
21:05:01.128;-110.0;-174.0
21:05:01.168;-175.0;-329.0
21:05:01.208;-151.0;-374.0
21:05:01.248;-207.0;-455.0
21:05:01.288;-311.0;-538.0
21:05:01.328;-342.0;-567.0
21:05:01.368;-308.0;-538.0
21:05:01.408;-71.0;79.0
21:05:01.448;-58.0;81.0
21:05:01.488;-253.0;-381.0
21:05:01.528;-205.0;-794.0
21:05:01.568;-622.0;2742.0
21:05:01.608;-335.0;1058.0
21:05:01.648;-79.0;321.0
21:05:01.688;105.0;222.0
21:05:01.728;342.0;520.0
21:05:01.768;551.0;1138.0
21:05:01.808;530.0;1421.0
21:05:01.848;209.0;475.0
21:05:01.888;-75.0;-252.0
21:05:01.928;-172.0;-531.0
21:05:01.968;-157.0;-629.0
21:05:02.008;-163.0;-638.0
21:05:02.048;-156.0;-686.0
21:05:02.088;-170.0;-708.0
21:05:02.128;-158.0;-694.0
21:05:02.168;-89.0;-563.0
21:05:02.208;51.0;-89.0
21:05:02.248;-137.0;-418.0
21:05:02.288;-246.0;-734.0
21:05:02.328;650.0;240.0
21:05:02.368;49.0;-248.0
21:05:02.408;28.0;-220.0
21:05:02.448;8.0;-132.0
21:05:02.488;183.0;272.0
21:05:02.528;360.0;822.0
21:05:02.568;501.0;1446.0
21:05:02.608;251.0;994.0
21:05:02.648;-66.0;77.0
21:05:02.688;-252.0;-372.0
21:05:02.728;-278.0;-542.0
21:05:02.768;-199.0;-592.0
21:05:02.808;-240.0;-673.0
21:05:02.848;-246.0;-696.0
21:05:02.888;-257.0;-806.0
21:05:02.928;-197.0;-677.0
21:05:02.968;-112.0;-213.0
21:05:03.008;-300.0;-582.0
21:05:03.048;-414.0;-823.0
21:05:03.088;575.0;1858.0
21:05:03.128;276.0;629.0
21:05:03.168;15.0;29.0
21:05:03.208;33.0;21.0
21:05:03.248;224.0;320.0
21:05:03.288;443.0;964.0
21:05:03.328;487.0;1547.0
21:05:03.368;184.0;867.0
21:05:03.408;-153.0;-19.0
21:05:03.448;-231.0;-418.0
21:05:03.488;-251.0;-540.0
21:05:03.528;-271.0;-598.0
21:05:03.568;-216.0;-629.0
21:05:03.608;-206.0;-643.0
21:05:03.648;-115.0;-238.0
21:05:03.688;-249.0;-557.0
21:05:03.728;-380.0;-845.0
21:05:03.768;607.0;328.0
21:05:03.808;171.0;-180.0
21:05:03.848;-21.0;-248.0
21:05:03.888;-34.0;-41.0
21:05:03.928;123.0;332.0
21:05:03.968;338.0;1027.0
21:05:04.008;439.0;1634.0
21:05:04.048;185.0;1025.0
21:05:04.088;-192.0;51.0
21:05:04.128;-323.0;-342.0
21:05:04.168;-334.0;-491.0
21:05:04.208;-302.0;-564.0
21:05:04.248;-271.0;-577.0
21:05:04.288;-158.0;-247.0
21:05:04.328;-342.0;-670.0
21:05:04.368;-509.0;-1124.0
21:05:04.408;445.0;-415.0
21:05:04.448;3.0;-836.0
21:05:04.488;-167.0;-859.0
21:05:04.528;-144.0;-762.0
21:05:04.568;47.0;-464.0
21:05:04.608;341.0;87.0
21:05:04.648;515.0;563.0
21:05:04.688;184.0;-198.0
21:05:04.728;-213.0;-1343.0
21:05:04.768;-346.0;-1948.0
21:05:04.808;-364.0;-2221.0
21:05:04.848;-330.0;-2414.0
21:05:05.092;-353.0;-2635.0
21:05:05.132;-236.0;-2606.0
21:05:05.172;-325.0;-3163.0
21:05:05.212;-410.0;-3614.0
21:05:05.252;510.0;-3003.0
21:05:05.292;-54.0;-3413.0
21:05:05.332;-206.0;-3405.0
21:05:05.372;-152.0;-3134.0
21:05:05.412;13.0;-2726.0
21:05:05.452;343.0;-1929.0
21:05:05.492;508.0;-1225.0
21:05:05.532;222.0;-1770.0
21:05:05.572;-181.0;-2769.0
21:05:05.612;-287.0;-3184.0
21:05:05.652;-387.0;-3344.0
21:05:05.692;-387.0;-3358.0
21:05:05.732;-445.0;-3342.0
21:05:05.772;-487.0;-3264.0
21:05:05.812;-567.0;-3224.0
21:05:05.852;-345.0;-2559.0
21:05:05.892;-181.0;-2255.0
21:05:05.932;-428.0;-2599.0
21:05:05.972;-510.0;-2679.0
21:05:06.012;-733.0;3348.0
21:05:06.052;-448.0;423.0
21:05:06.092;-239.0;-923.0
21:05:06.132;-96.0;-1253.0
21:05:06.172;161.0;-926.0
21:05:06.212;477.0;-145.0
21:05:06.252;440.0;188.0
21:05:06.292;12.0;-557.0
21:05:06.332;-329.0;-1161.0
21:05:06.372;-424.0;-1307.0
21:05:06.412;-421.0;-1313.0
21:05:06.452;-432.0;-1242.0
21:05:06.492;-469.0;-1249.0
21:05:06.532;-517.0;-1216.0
21:05:06.572;-523.0;-1060.0
21:05:06.612;-349.0;-454.0
21:05:06.652;-396.0;-567.0
21:05:06.692;-498.0;-768.0
21:05:06.732;152.0;-455.0
21:05:06.772;-264.0;-592.0
21:05:06.812;-309.0;-383.0
21:05:06.852;-203.0;-59.0
21:05:06.892;-26.0;387.0
21:05:06.932;236.0;1071.0
21:05:06.972;428.0;1715.0
21:05:07.012;189.0;1376.0
21:05:07.052;-150.0;543.0
21:05:07.092;-295.0;83.0
21:05:07.132;-332.0;-33.0
21:05:07.172;-283.0;-82.0
21:05:07.212;-322.0;-173.0
21:05:07.252;-325.0;-217.0
21:05:07.292;-371.0;-189.0
21:05:07.332;-357.0;-177.0
21:05:07.372;-351.0;-128.0
21:05:07.412;-79.0;455.0
21:05:07.452;-17.0;500.0
21:05:07.492;-209.0;-23.0
21:05:07.532;-293.0;-358.0
21:05:07.572;-587.0;4655.0
21:05:07.612;-384.0;1965.0
21:05:07.652;-183.0;674.0
21:05:07.692;13.0;307.0
21:05:07.732;275.0;478.0
21:05:07.772;587.0;1145.0
21:05:07.812;471.0;1323.0
21:05:07.852;86.0;362.0
21:05:07.892;-184.0;-380.0
21:05:07.932;-305.0;-627.0
21:05:07.972;-301.0;-688.0
21:05:08.012;-293.0;-729.0
21:05:08.052;-280.0;-773.0
21:05:08.092;-280.0;-782.0
21:05:08.132;-295.0;-785.0
21:05:08.172;-275.0;-733.0
21:05:08.212;-236.0;-680.0
21:05:08.252;-130.0;-259.0
21:05:08.292;20.0;114.0
21:05:08.332;-186.0;-323.0
21:05:08.372;-266.0;-519.0
21:05:08.412;335.0;4110.0
21:05:08.452;183.0;1767.0
21:05:08.492;-1.0;491.0
21:05:08.532;62.0;80.0
21:05:08.572;245.0;246.0
21:05:08.612;449.0;854.0
21:05:08.652;521.0;1363.0
21:05:08.692;218.0;626.0
21:05:08.732;-103.0;-203.0
21:05:08.772;-236.0;-496.0
21:05:08.812;-221.0;-546.0
21:05:08.852;-132.0;-509.0
21:05:08.892;-177.0;-575.0
21:05:08.932;-151.0;-569.0
21:05:08.972;-152.0;-549.0
21:05:09.012;-188.0;-502.0
21:05:09.052;-166.0;-391.0
21:05:09.327;29.0;94.0
21:05:09.367;-35.0;-189.0
21:05:09.407;-111.0;-401.0
21:05:09.447;-334.0;5413.0
21:05:09.487;-24.0;2457.0
21:05:09.527;126.0;960.0
21:05:09.567;287.0;427.0
21:05:09.607;563.0;551.0
21:05:09.647;830.0;1055.0
21:05:09.687;822.0;1325.0
21:05:09.727;444.0;482.0
21:05:09.767;174.0;-174.0
21:05:09.807;24.0;-478.0
21:05:09.847;20.0;-528.0
21:05:09.887;-35.0;-549.0
21:05:09.927;-78.0;-683.0
21:05:09.967;-104.0;-669.0
21:05:10.007;-123.0;-640.0
21:05:10.047;-103.0;-580.0
21:05:10.087;48.0;-78.0
21:05:10.127;68.0;-207.0
21:05:10.167;-159.0;-591.0
21:05:10.207;197.0;-1104.0
21:05:10.247;-633.0;-524.0
21:05:10.287;-324.0;-374.0
21:05:10.327;-49.0;-176.0
21:05:10.367;219.0;144.0
21:05:10.407;541.0;704.0
21:05:10.447;743.0;1367.0
21:05:10.487;579.0;1281.0
21:05:10.527;212.0;237.0
21:05:10.567;-25.0;-421.0
21:05:10.607;-92.0;-697.0
21:05:10.647;-88.0;-809.0
21:05:10.687;-148.0;-963.0
21:05:10.727;-189.0;-1123.0
21:05:10.767;-192.0;-1153.0
21:05:10.807;-235.0;-1181.0
21:05:10.847;-227.0;-1176.0
21:05:10.887;-22.0;-658.0
21:05:10.927;3.0;-786.0
21:05:10.967;-189.0;-1117.0
21:05:11.007;243.0;-1499.0
21:05:11.047;-729.0;-1095.0
21:05:11.087;-323.0;-792.0
21:05:11.127;-60.0;-556.0
21:05:11.167;217.0;-179.0
21:05:11.207;476.0;424.0
21:05:11.247;750.0;1173.0
21:05:11.287;650.0;1137.0
21:05:11.327;241.0;56.0
21:05:11.367;44.0;-564.0
21:05:11.407;-7.0;-768.0
21:05:11.447;-21.0;-808.0
21:05:11.487;-26.0;-832.0
21:05:11.527;-90.0;-939.0
21:05:11.567;-101.0;-914.0
21:05:11.607;-139.0;-943.0
21:05:11.647;-137.0;-837.0
21:05:11.687;31.0;-296.0
21:05:11.727;120.0;-108.0
21:05:11.767;-92.0;-625.0
21:05:11.807;-124.0;-998.0
21:05:11.847;-510.0;3073.0
21:05:11.887;-165.0;1214.0
21:05:11.927;10.0;299.0
21:05:11.967;220.0;93.0
21:05:12.007;460.0;398.0
21:05:12.047;766.0;1061.0
21:05:12.087;679.0;1233.0
21:05:12.127;347.0;362.0
21:05:12.167;17.0;-316.0
21:05:12.207;-25.0;-456.0
21:05:12.247;-28.0;-464.0
21:05:12.287;58.0;-372.0
21:05:12.327;77.0;-383.0
21:05:12.367;42.0;-424.0
21:05:12.407;-41.0;-433.0
21:05:12.447;79.0;-44.0
21:05:12.487;238.0;311.0
21:05:12.527;-12.0;-256.0
21:05:12.567;-181.0;-532.0
21:05:12.607;-342.0;5517.0
21:05:12.647;-51.0;2399.0
21:05:12.687;110.0;809.0
21:05:12.727;283.0;325.0
21:05:12.767;494.0;424.0
21:05:12.807;746.0;1012.0
21:05:12.847;713.0;1263.0
21:05:12.887;340.0;425.0
21:05:12.927;30.0;-270.0
21:05:12.967;-54.0;-515.0
21:05:13.007;-76.0;-564.0
21:05:13.047;-29.0;-551.0
21:05:13.087;-79.0;-603.0
21:05:13.127;-134.0;-605.0
21:05:13.167;-147.0;-583.0
21:05:13.207;-178.0;-544.0
21:05:13.247;10.0;-40.0
21:05:13.287;11.0;-133.0
21:05:13.479;-194.0;-472.0
21:05:13.519;-501.0;4309.0
21:05:13.559;-243.0;1666.0
21:05:13.599;-45.0;483.0
21:05:13.639;141.0;174.0
21:05:13.679;369.0;438.0
21:05:13.719;668.0;1154.0
21:05:13.759;649.0;1365.0
21:05:13.799;282.0;394.0
21:05:13.839;-47.0;-385.0
21:05:13.879;-130.0;-628.0
21:05:13.919;-202.0;-718.0
21:05:13.959;-173.0;-669.0
21:05:13.999;-168.0;-641.0
21:05:14.039;-191.0;-722.0
21:05:14.079;-175.0;-711.0
21:05:14.119;-221.0;-683.0
21:05:14.159;-194.0;-597.0
21:05:14.199;11.0;-39.0
21:05:14.239;-3.0;-215.0
21:05:14.279;-179.0;-556.0
21:05:14.319;244.0;-948.0
21:05:14.359;-605.0;-634.0
21:05:14.399;-307.0;-276.0
21:05:14.439;-104.0;2.0
21:05:14.479;212.0;455.0
21:05:14.519;548.0;1080.0
21:05:14.559;762.0;1823.0
21:05:14.599;612.0;1727.0
21:05:14.639;158.0;650.0
21:05:14.679;-65.0;35.0
21:05:14.719;-83.0;-131.0
21:05:14.759;-80.0;-169.0
21:05:14.799;-92.0;-231.0
21:05:14.839;-154.0;-265.0
21:05:14.879;-90.0;-249.0
21:05:14.919;-135.0;-298.0
21:05:14.959;-89.0;-271.0
21:05:14.999;75.0;168.0
21:05:15.039;144.0;212.0
21:05:15.079;-77.0;-191.0
21:05:15.119;74.0;-736.0
21:05:15.159;-615.0;767.0
21:05:15.199;-188.0;479.0
21:05:15.239;109.0;398.0
21:05:15.279;266.0;529.0
21:05:15.319;534.0;969.0
21:05:15.359;863.0;1653.0
21:05:15.399;736.0;1578.0
21:05:15.439;315.0;626.0
21:05:15.479;71.0;29.0
21:05:15.519;-88.0;-178.0
21:05:15.559;-87.0;-315.0
21:05:15.599;-64.0;-392.0
21:05:15.639;-89.0;-468.0
21:05:15.679;-125.0;-573.0
21:05:15.719;-101.0;-519.0
21:05:15.759;-21.0;-394.0
21:05:15.799;51.0;79.0
21:05:15.839;-187.0;-299.0
21:05:15.879;-282.0;-503.0
21:05:15.919;722.0;1194.0
21:05:15.959;305.0;362.0
21:05:15.999;11.0;29.0
21:05:16.039;-19.0;112.0
21:05:16.079;115.0;419.0
21:05:16.119;330.0;1028.0
21:05:16.159;461.0;1689.0
21:05:16.199;177.0;1082.0
21:05:16.239;-129.0;140.0
21:05:16.279;-305.0;-412.0
21:05:16.319;-315.0;-557.0
21:05:16.359;-330.0;-675.0
21:05:16.399;-292.0;-743.0
21:05:16.439;-262.0;-795.0
21:05:16.479;-248.0;-871.0
21:05:16.519;-264.0;-891.0
21:05:16.559;-287.0;-926.0
21:05:16.599;-188.0;-707.0
21:05:16.639;-121.0;-267.0
21:05:16.679;-283.0;-704.0
21:05:16.719;-326.0;-951.0
21:05:16.759;665.0;2132.0
21:05:16.799;274.0;645.0
21:05:16.839;-7.0;-139.0
21:05:16.879;-28.0;-294.0
21:05:16.919;147.0;-18.0
21:05:16.959;445.0;750.0
21:05:16.999;521.0;1337.0
21:05:17.039;221.0;691.0
21:05:17.079;-107.0;-230.0
21:05:17.119;-240.0;-672.0
21:05:17.159;-292.0;-809.0
21:05:17.199;-290.0;-768.0
21:05:17.239;-290.0;-817.0
21:05:17.279;-317.0;-812.0
21:05:17.319;-311.0;-782.0
21:05:17.359;-302.0;-716.0
21:05:17.399;-271.0;-654.0
21:05:17.439;-216.0;-472.0
21:05:17.386;-75.0;46.0
21:05:17.426;-172.0;-340.0
21:05:17.466;563.0;110.0
21:05:17.506;103.0;-153.0
21:05:17.546;15.0;-100.0
21:05:17.586;80.0;129.0
21:05:17.626;313.0;539.0
21:05:17.666;598.0;1190.0
21:05:17.706;733.0;1843.0
21:05:17.746;475.0;1563.0
21:05:17.786;106.0;577.0
21:05:17.826;-111.0;1.0
21:05:17.866;-148.0;-202.0
21:05:17.906;-127.0;-217.0
21:05:17.946;-164.0;-373.0
21:05:17.986;-180.0;-493.0
21:05:18.026;-217.0;-598.0
21:05:18.066;-239.0;-691.0
21:05:18.106;-92.0;-340.0
21:05:18.146;126.0;-116.0
21:05:18.186;-92.0;-684.0
21:05:18.226;-192.0;-846.0
21:05:18.266;-417.0;4695.0
21:05:18.306;-120.0;1617.0
21:05:18.346;82.0;145.0
21:05:18.386;242.0;-380.0
21:05:18.426;423.0;-346.0
21:05:18.466;671.0;184.0
21:05:18.506;705.0;448.0
21:05:18.546;262.0;-452.0
21:05:18.586;-86.0;-1185.0
21:05:18.626;-139.0;-1414.0
21:05:18.666;-97.0;-1449.0
21:05:18.706;-145.0;-1505.0
21:05:18.746;-146.0;-1580.0
21:05:18.786;-247.0;-1746.0
21:05:18.826;-299.0;-1833.0
21:05:18.866;-318.0;-1820.0
21:05:18.906;-161.0;-1297.0
21:05:18.946;-144.0;-1438.0
21:05:18.986;-252.0;-1777.0
21:05:19.026;186.0;-2078.0
21:05:19.066;-615.0;-1815.0
21:05:19.106;-343.0;-1428.0
21:05:19.146;-175.0;-1098.0
21:05:19.186;42.0;-645.0
21:05:19.226;328.0;65.0
21:05:19.266;572.0;876.0
21:05:19.306;382.0;747.0
21:05:19.346;-23.0;-305.0
21:05:19.386;-220.0;-888.0
21:05:19.426;-240.0;-1070.0
21:05:19.466;-232.0;-1075.0
21:05:19.506;-196.0;-1079.0
21:05:19.546;-228.0;-1090.0
21:05:19.586;-262.0;-1104.0
21:05:19.626;-279.0;-1050.0
21:05:19.666;-279.0;-963.0
21:05:19.706;-109.0;-460.0
21:05:19.746;78.0;-76.0
21:05:19.786;-216.0;-583.0
21:05:19.826;-327.0;-777.0
21:05:19.866;-386.0;5668.0
21:05:19.906;-246.0;2285.0
21:05:19.946;-124.0;613.0
21:05:19.986;22.0;20.0
21:05:20.026;271.0;127.0
21:05:20.066;535.0;771.0
21:05:20.106;578.0;1214.0
21:05:20.146;225.0;360.0
21:05:20.186;-76.0;-429.0
21:05:20.226;-142.0;-668.0
21:05:20.266;-145.0;-662.0
21:05:20.306;-114.0;-595.0
21:05:20.346;-150.0;-633.0
21:05:20.386;-159.0;-641.0
21:05:20.426;-162.0;-596.0
21:05:20.466;-161.0;-551.0
21:05:20.506;-152.0;-503.0
21:05:20.546;-44.0;-131.0
21:05:20.586;188.0;376.0
21:05:20.626;34.0;-23.0
21:05:20.666;-69.0;-236.0
21:05:20.706;-125.0;5927.0
21:05:20.746;67.0;2739.0
21:05:20.786;145.0;1088.0
21:05:20.826;270.0;515.0
21:05:20.866;419.0;519.0
21:05:20.906;712.0;1104.0
21:05:20.946;732.0;1452.0
21:05:20.986;342.0;592.0
21:05:21.026;62.0;-169.0
21:05:21.066;-83.0;-490.0
21:05:21.106;-125.0;-593.0
21:05:21.146;-97.0;-581.0
21:05:21.186;-128.0;-676.0
21:05:21.226;-147.0;-688.0
21:05:21.266;-157.0;-676.0
21:05:21.306;-122.0;-586.0
21:05:21.346;10.0;-86.0
21:05:21.795;-87.0;-384.0
21:05:21.835;359.0;-695.0
21:05:21.875;-276.0;-528.0
21:05:21.915;-27.0;-309.0
21:05:21.955;129.0;-71.0
21:05:21.995;326.0;288.0
21:05:22.035;535.0;874.0
21:05:22.075;749.0;1549.0
21:05:22.115;543.0;1348.0
21:05:22.155;134.0;362.0
21:05:22.195;-98.0;-187.0
21:05:22.235;-144.0;-363.0
21:05:22.275;-93.0;-367.0
21:05:22.315;-103.0;-462.0
21:05:22.355;-123.0;-552.0
21:05:22.395;-166.0;-586.0
21:05:22.435;-261.0;-669.0
21:05:22.475;-194.0;-563.0
21:05:22.515;-27.0;13.0
21:05:22.555;256.0;-192.0
21:05:22.595;-141.0;-512.0
21:05:22.635;307.0;-513.0
21:05:22.675;-303.0;-469.0
21:05:22.715;-242.0;-196.0
21:05:22.755;-177.0;67.0
21:05:22.795;-20.0;492.0
21:05:22.835;229.0;1147.0
21:05:22.875;434.0;1909.0
21:05:22.915;264.0;1690.0
21:05:22.955;-68.0;676.0
21:05:22.995;-298.0;51.0
21:05:23.035;-348.0;-141.0
21:05:23.075;-355.0;-255.0
21:05:23.115;-359.0;-400.0
21:05:23.155;-376.0;-480.0
21:05:23.195;-411.0;-546.0
21:05:23.235;-409.0;-567.0
21:05:23.275;-404.0;-517.0
21:05:23.315;-343.0;-455.0
21:05:23.355;-248.0;-161.0
21:05:23.395;-77.0;328.0
21:05:23.435;-336.0;-159.0
21:05:23.475;-472.0;-461.0
21:05:23.515;97.0;4648.0
21:05:23.555;-32.0;2039.0
21:05:23.595;-54.0;620.0
21:05:23.635;6.0;230.0
21:05:23.675;211.0;407.0
21:05:23.715;458.0;1019.0
21:05:23.755;530.0;1555.0
21:05:23.795;203.0;816.0
21:05:23.835;-155.0;-115.0
21:05:23.875;-262.0;-458.0
21:05:23.915;-303.0;-550.0
21:05:23.955;-268.0;-518.0
21:05:23.995;-230.0;-519.0
21:05:24.035;-268.0;-530.0
21:05:24.075;-250.0;-497.0
21:05:24.115;-237.0;-429.0
21:05:24.155;-238.0;-288.0
21:05:24.195;-113.0;133.0
21:05:24.235;29.0;584.0
21:05:24.275;-145.0;210.0
21:05:24.315;-201.0;82.0
21:05:24.355;277.0;5067.0
21:05:24.395;221.0;2554.0
21:05:24.435;184.0;1287.0
21:05:24.475;230.0;829.0
21:05:24.515;347.0;800.0
21:05:24.555;591.0;1281.0
21:05:24.595;678.0;1645.0
21:05:24.635;362.0;937.0
21:05:24.675;53.0;8.0
21:05:24.715;-153.0;-360.0
21:05:24.755;-205.0;-500.0
21:05:24.795;-128.0;-568.0
21:05:24.835;-152.0;-630.0
21:05:24.875;-155.0;-724.0
21:05:24.915;-133.0;-770.0
21:05:24.955;-139.0;-671.0
21:05:24.995;6.0;-172.0
21:05:25.035;-108.0;-473.0
21:05:25.075;-182.0;-771.0
21:05:25.115;777.0;1449.0
21:05:25.155;359.0;320.0
21:05:25.195;114.0;-148.0
21:05:25.235;105.0;-186.0
21:05:25.275;220.0;103.0
21:05:25.315;489.0;763.0
21:05:25.355;574.0;1349.0
21:05:25.395;267.0;780.0
21:05:25.435;-57.0;-121.0
21:05:25.475;-247.0;-616.0
21:05:25.515;-318.0;-801.0
21:05:25.555;-240.0;-825.0
21:05:25.595;-244.0;-919.0
21:05:25.635;-283.0;-1052.0
21:05:25.675;-320.0;-1095.0
21:05:25.715;-309.0;-1200.0
21:05:25.755;-230.0;-1100.0
21:05:25.950;-76.0;-603.0
21:05:25.990;-239.0;-1020.0
21:05:26.030;256.0;-1323.0
21:05:26.070;-526.0;-1121.0
21:05:26.110;-287.0;-801.0
21:05:26.150;-112.0;-484.0
21:05:26.190;83.0;-49.0
21:05:26.230;358.0;603.0
21:05:26.270;597.0;1415.0
21:05:26.310;465.0;1358.0
21:05:26.350;46.0;255.0
21:05:26.390;-189.0;-393.0
21:05:26.430;-216.0;-608.0
21:05:26.470;-229.0;-720.0
21:05:26.510;-282.0;-878.0
21:05:26.550;-300.0;-963.0
21:05:26.590;-368.0;-1079.0
21:05:26.630;-387.0;-1066.0
21:05:26.670;-368.0;-1066.0
21:05:26.710;-344.0;-1020.0
21:05:26.750;-345.0;-1018.0
21:05:26.790;-221.0;-637.0
21:05:26.830;-33.0;-318.0
21:05:26.870;-263.0;-811.0
21:05:26.910;-459.0;-1189.0
21:05:26.950;-514.0;5256.0
21:05:26.990;-274.0;1871.0
21:05:27.030;-145.0;155.0
21:05:27.070;2.0;-407.0
21:05:27.110;245.0;-362.0
21:05:27.150;556.0;262.0
21:05:27.190;618.0;767.0
21:05:27.230;255.0;-137.0
21:05:27.270;-103.0;-953.0
21:05:27.310;-231.0;-1281.0
21:05:27.350;-187.0;-1207.0
21:05:27.390;-141.0;-1179.0
21:05:27.430;-134.0;-1121.0
21:05:27.470;-162.0;-1084.0
21:05:27.510;-224.0;-1057.0
21:05:27.550;-224.0;-974.0
21:05:27.590;-174.0;-865.0
21:05:27.630;-199.0;-752.0
21:05:27.670;3.0;-158.0
21:05:27.710;-62.0;-312.0
21:05:27.750;-203.0;-596.0
21:05:27.790;602.0;-66.0
21:05:27.830;54.0;-312.0
21:05:27.870;-3.0;-193.0
21:05:27.910;53.0;87.0
21:05:27.950;237.0;455.0
21:05:27.990;512.0;1094.0
21:05:28.030;687.0;1779.0
21:05:28.070;499.0;1513.0
21:05:28.110;126.0;484.0
21:05:28.150;-104.0;-56.0
21:05:28.190;-148.0;-279.0
21:05:28.230;-146.0;-379.0
21:05:28.270;-84.0;-366.0
21:05:28.310;-84.0;-375.0
21:05:28.350;-110.0;-391.0
21:05:28.390;-171.0;-436.0
21:05:28.430;-84.0;-164.0
21:05:28.470;7.0;208.0
21:05:28.510;-155.0;-293.0
21:05:28.550;-205.0;-554.0
21:05:28.590;279.0;4383.0
21:05:28.630;111.0;1785.0
21:05:28.670;80.0;511.0
21:05:28.710;128.0;97.0
21:05:28.750;269.0;231.0
21:05:28.790;556.0;851.0
21:05:28.830;586.0;1343.0
21:05:28.870;171.0;472.0
21:05:28.910;-165.0;-359.0
21:05:28.950;-276.0;-705.0
21:05:28.990;-250.0;-745.0
21:05:29.030;-226.0;-760.0
21:05:29.070;-242.0;-836.0
21:05:29.110;-351.0;-836.0
21:05:29.150;-296.0;-843.0
21:05:29.190;-226.0;-705.0
21:05:29.230;-107.0;-327.0
21:05:29.270;80.0;-27.0
21:05:29.310;-134.0;-531.0
21:05:29.350;-280.0;-805.0
21:05:29.390;81.0;5417.0
21:05:29.430;85.0;2142.0
21:05:29.470;66.0;435.0
21:05:29.510;121.0;-113.0
21:05:29.550;243.0;-65.0
21:05:29.590;493.0;561.0
21:05:29.630;503.0;1014.0
21:05:29.670;187.0;119.0
21:05:29.710;-138.0;-736.0
21:05:29.750;-315.0;-1082.0
21:05:29.790;-363.0;-1180.0
21:05:29.830;-335.0;-1094.0
21:05:29.870;-296.0;-1151.0
21:05:29.910;-435.0;-1207.0
21:05:29.793;-385.0;-1202.0
21:05:29.833;-386.0;-1196.0
21:05:29.873;-416.0;-1120.0
21:05:29.913;-196.0;-570.0
21:05:29.953;-141.0;-592.0
21:05:29.993;-291.0;-922.0
21:05:30.033;-93.0;-1356.0
21:05:30.073;-807.0;-315.0
21:05:30.113;-408.0;-309.0
21:05:30.153;-181.0;-265.0
21:05:30.193;112.0;65.0
21:05:30.233;400.0;676.0
21:05:30.273;678.0;1443.0
21:05:30.313;629.0;1608.0
21:05:30.353;246.0;560.0
21:05:30.393;-52.0;-154.0
21:05:30.433;-192.0;-432.0
21:05:30.473;-204.0;-469.0
21:05:30.513;-174.0;-450.0
21:05:30.553;-205.0;-456.0
21:05:30.593;-198.0;-454.0
21:05:30.633;-276.0;-488.0
21:05:30.673;-222.0;-441.0
21:05:30.713;-206.0;-325.0
21:05:30.753;13.0;189.0
21:05:30.793;-61.0;-14.0
21:05:30.833;-176.0;-374.0
21:05:30.873;618.0;228.0
21:05:30.913;82.0;-136.0
21:05:30.953;-3.0;-2.0
21:05:30.993;31.0;183.0
21:05:31.033;253.0;566.0
21:05:31.073;542.0;1158.0
21:05:31.113;763.0;1802.0
21:05:31.153;534.0;1517.0
21:05:31.193;149.0;562.0
21:05:31.233;-74.0;-7.0
21:05:31.273;-131.0;-263.0
21:05:31.313;-74.0;-312.0
21:05:31.353;-91.0;-402.0
21:05:31.393;-113.0;-507.0
21:05:31.433;-96.0;-585.0
21:05:31.473;-132.0;-630.0
21:05:31.513;58.0;-191.0
21:05:31.553;244.0;87.0
21:05:31.593;-38.0;-461.0
21:05:31.633;-179.0;-745.0
21:05:31.673;-337.0;5526.0
21:05:31.713;-104.0;2186.0
21:05:31.753;23.0;526.0
21:05:31.793;159.0;-42.0
21:05:31.833;388.0;30.0
21:05:31.873;636.0;643.0
21:05:31.913;655.0;1019.0
21:05:31.953;297.0;157.0
21:05:31.993;-15.0;-630.0
21:05:32.033;-207.0;-946.0
21:05:32.073;-212.0;-1005.0
21:05:32.113;-217.0;-1029.0
21:05:32.153;-206.0;-1027.0
21:05:32.193;-219.0;-1041.0
21:05:32.233;-223.0;-1016.0
21:05:32.273;-215.0;-1001.0
21:05:32.313;-111.0;-777.0
21:05:32.353;9.0;-344.0
21:05:32.393;-229.0;-744.0
21:05:32.433;-326.0;-986.0
21:05:32.473;705.0;1904.0
21:05:32.513;318.0;550.0
21:05:32.553;31.0;-185.0
21:05:32.593;12.0;-265.0
21:05:32.633;99.0;-36.0
21:05:32.673;304.0;601.0
21:05:32.713;434.0;1314.0
21:05:32.753;144.0;673.0
21:05:32.793;-219.0;-317.0
21:05:32.833;-454.0;-825.0
21:05:32.873;-488.0;-919.0
21:05:32.913;-461.0;-946.0
21:05:32.953;-444.0;-951.0
21:05:32.993;-413.0;-943.0
21:05:33.033;-385.0;-892.0
21:05:33.073;-412.0;-898.0
21:05:33.113;-383.0;-834.0
21:05:33.153;-285.0;-716.0
21:05:33.193;-43.0;-180.0
21:05:33.233;-54.0;-389.0
21:05:33.273;-224.0;-643.0
21:05:33.313;497.0;-333.0
21:05:33.353;43.0;-491.0
21:05:33.393;0.0;-302.0
21:05:33.433;94.0;-26.0
21:05:33.473;275.0;383.0
21:05:33.513;515.0;967.0
21:05:33.553;690.0;1663.0
21:05:33.593;525.0;1499.0
21:05:33.633;127.0;413.0
21:05:33.673;-93.0;-170.0
21:05:33.713;-186.0;-458.0
21:05:33.753;-177.0;-484.0
21:05:33.850;-172.0;-520.0
21:05:33.890;-137.0;-551.0
21:05:33.930;-123.0;-547.0
21:05:33.970;-60.0;-470.0
21:05:34.010;-30.0;-67.0
21:05:34.050;-95.0;-381.0
21:05:34.090;-123.0;-621.0
21:05:34.130;845.0;1449.0
21:05:34.170;446.0;389.0
21:05:34.210;235.0;14.0
21:05:34.250;175.0;-2.0
21:05:34.290;335.0;298.0
21:05:34.330;573.0;885.0
21:05:34.370;682.0;1438.0
21:05:34.410;445.0;994.0
21:05:34.450;58.0;85.0
21:05:34.490;-124.0;-384.0
21:05:34.530;-189.0;-544.0
21:05:34.570;-145.0;-548.0
21:05:34.610;-173.0;-598.0
21:05:34.650;-194.0;-674.0
21:05:34.690;-208.0;-732.0
21:05:34.730;-230.0;-703.0
21:05:34.770;-8.0;-107.0
21:05:34.810;-11.0;-158.0
21:05:34.850;-210.0;-578.0
21:05:34.890;-41.0;-1041.0
21:05:34.930;-749.0;231.0
21:05:34.970;-402.0;42.0
21:05:35.010;-161.0;41.0
21:05:35.050;35.0;290.0
21:05:35.090;276.0;780.0
21:05:35.130;541.0;1595.0
21:05:35.170;422.0;1663.0
21:05:35.210;42.0;588.0
21:05:35.250;-222.0;-103.0
21:05:35.290;-331.0;-394.0
21:05:35.330;-319.0;-444.0
21:05:35.370;-284.0;-452.0
21:05:35.410;-358.0;-556.0
21:05:35.450;-383.0;-597.0
21:05:35.490;-411.0;-663.0
21:05:35.530;-387.0;-633.0
21:05:35.570;-282.0;-258.0
21:05:35.610;-122.0;107.0
21:05:35.650;-357.0;-389.0
21:05:35.690;-445.0;-618.0
21:05:35.730;-371.0;5707.0
21:05:35.770;-253.0;2335.0
21:05:35.810;-170.0;608.0
21:05:35.850;21.0;92.0
21:05:35.890;267.0;225.0
21:05:35.930;520.0;797.0
21:05:35.970;551.0;1244.0
21:05:36.010;331.0;438.0
21:05:36.050;-65.0;-341.0
21:05:36.090;-245.0;-704.0
21:05:36.130;-300.0;-772.0
21:05:36.170;-260.0;-669.0
21:05:36.210;-230.0;-653.0
21:05:36.250;-233.0;-664.0
21:05:36.290;-229.0;-650.0
21:05:36.330;-225.0;-636.0
21:05:36.370;-181.0;-509.0
21:05:36.410;9.0;46.0
21:05:36.450;-133.0;-202.0
21:05:36.490;-173.0;-433.0
21:05:36.530;815.0;958.0
21:05:36.570;384.0;273.0
21:05:36.610;173.0;-31.0
21:05:36.650;118.0;36.0
21:05:36.690;277.0;352.0
21:05:36.730;478.0;907.0
21:05:36.770;623.0;1546.0
21:05:36.810;283.0;1042.0
21:05:36.850;-66.0;143.0
21:05:36.890;-189.0;-335.0
21:05:36.930;-177.0;-444.0
21:05:36.970;-183.0;-512.0
21:05:37.010;-199.0;-599.0
21:05:37.050;-197.0;-661.0
21:05:37.090;-116.0;-684.0
21:05:37.130;-169.0;-715.0
21:05:37.170;-17.0;-229.0
21:05:37.210;39.0;-201.0
21:05:37.250;-108.0;-628.0
21:05:37.290;39.0;-1110.0
21:05:37.330;-496.0;1244.0
21:05:37.370;-182.0;321.0
21:05:37.410;-7.0;4.0
21:05:37.450;175.0;30.0
21:05:37.490;398.0;455.0
21:05:37.530;698.0;1164.0
21:05:37.570;662.0;1270.0
21:05:37.610;307.0;323.0
21:05:37.650;-20.0;-411.0
21:05:37.690;-157.0;-633.0
21:05:37.730;-155.0;-672.0
21:05:37.770;-199.0;-713.0
21:05:37.810;-281.0;-773.0
21:05:37.961;-400.0;-902.0
21:05:38.001;-392.0;-889.0
21:05:38.041;-322.0;-741.0
21:05:38.081;-113.0;-182.0
21:05:38.121;-169.0;-339.0
21:05:38.161;-344.0;-695.0
21:05:38.201;173.0;-620.0
21:05:38.241;-246.0;-699.0
21:05:38.281;-251.0;-486.0
21:05:38.321;-105.0;-165.0
21:05:38.361;63.0;218.0
21:05:38.401;313.0;863.0
21:05:38.441;505.0;1606.0
21:05:38.481;338.0;1453.0
21:05:38.521;-26.0;381.0
21:05:38.561;-277.0;-248.0
21:05:38.601;-337.0;-424.0
21:05:38.641;-343.0;-492.0
21:05:38.681;-293.0;-500.0
21:05:38.721;-298.0;-564.0
21:05:38.761;-337.0;-611.0
21:05:38.801;-342.0;-636.0
21:05:38.841;-331.0;-608.0
21:05:38.881;-359.0;-628.0
21:05:38.921;-278.0;-294.0
21:05:38.961;-109.0;43.0
21:05:39.001;-270.0;-428.0
21:05:39.041;-345.0;-656.0
21:05:39.081;128.0;4549.0
21:05:39.121;62.0;1848.0
21:05:39.161;30.0;366.0
21:05:39.201;113.0;-50.0
21:05:39.241;237.0;-57.0
21:05:39.281;497.0;467.0
21:05:39.321;595.0;921.0
21:05:39.361;251.0;129.0
21:05:39.401;-116.0;-807.0
21:05:39.441;-279.0;-1253.0
21:05:39.481;-303.0;-1408.0
21:05:39.521;-288.0;-1506.0
21:05:39.561;-303.0;-1668.0
21:05:39.601;-324.0;-1816.0
21:05:39.641;-358.0;-1967.0
21:05:39.681;-331.0;-2007.0
21:05:39.721;-243.0;-1944.0
21:05:39.761;-202.0;-1648.0
21:05:39.801;-314.0;-2164.0
21:05:39.841;-301.0;-2398.0
21:05:39.881;542.0;650.0
21:05:39.921;204.0;-985.0
21:05:39.961;28.0;-1748.0
21:05:40.001;23.0;-1963.0
21:05:40.041;167.0;-1758.0
21:05:40.081;440.0;-1093.0
21:05:40.121;560.0;-485.0
21:05:40.161;183.0;-1117.0
21:05:40.201;-164.0;-1965.0
21:05:40.241;-366.0;-2407.0
21:05:40.281;-361.0;-2502.0
21:05:40.321;-384.0;-2500.0
21:05:40.361;-356.0;-2466.0
21:05:40.401;-409.0;-2512.0
21:05:40.441;-389.0;-2477.0
21:05:40.481;-347.0;-2410.0
21:05:40.521;-341.0;-2266.0
21:05:40.561;-147.0;-1701.0
21:05:40.601;-195.0;-1801.0
21:05:40.641;-333.0;-2007.0
21:05:40.681;429.0;-1359.0
21:05:40.721;-101.0;-1561.0
21:05:40.761;-228.0;-1401.0
21:05:40.801;-192.0;-1173.0
21:05:40.841;-51.0;-691.0
21:05:40.881;125.0;-6.0
21:05:40.921;268.0;872.0
21:05:40.961;39.0;608.0
21:05:41.001;-357.0;-395.0
21:05:41.041;-463.0;-794.0
21:05:41.081;-505.0;-924.0
21:05:41.121;-500.0;-950.0
21:05:41.161;-460.0;-899.0
21:05:41.201;-577.0;-944.0
21:05:41.241;-592.0;-904.0
21:05:41.281;-517.0;-788.0
21:05:41.321;-507.0;-750.0
21:05:41.361;-304.0;-155.0
21:05:41.401;-54.0;158.0
21:05:41.441;-323.0;-321.0
21:05:41.481;-448.0;-641.0
21:05:41.521;-759.0;4904.0
21:05:41.561;-462.0;2036.0
21:05:41.601;-227.0;750.0
21:05:41.641;-37.0;318.0
21:05:41.681;210.0;533.0
21:05:41.721;562.0;1310.0
21:05:41.761;561.0;1733.0
21:05:41.801;153.0;825.0
21:05:41.841;-195.0;67.0
21:05:41.881;-330.0;-233.0
21:05:41.921;-336.0;-329.0
21:05:42.086;-342.0;-314.0
21:05:42.126;-299.0;-223.0
21:05:42.166;-273.0;-187.0
21:05:42.206;-221.0;-118.0
21:05:42.246;-261.0;-70.0
21:05:42.286;-68.0;454.0
21:05:42.326;-122.0;287.0
21:05:42.366;-218.0;-47.0
21:05:42.406;577.0;550.0
21:05:42.446;63.0;278.0
21:05:42.486;-20.0;291.0
21:05:42.526;-1.0;406.0
21:05:42.566;204.0;744.0
21:05:42.606;510.0;1350.0
21:05:42.646;715.0;2042.0
21:05:42.686;462.0;1758.0
21:05:42.726;134.0;814.0
21:05:42.766;-93.0;330.0
21:05:42.806;-120.0;169.0
21:05:42.846;-131.0;127.0
21:05:42.886;-81.0;102.0
21:05:42.926;-106.0;-17.0
21:05:42.966;-149.0;-76.0
21:05:43.006;-105.0;-47.0
21:05:43.046;-17.0;378.0
21:05:43.086;-183.0;-5.0
21:05:43.126;-207.0;-236.0
21:05:43.166;848.0;1538.0
21:05:43.206;427.0;697.0
21:05:43.246;165.0;329.0
21:05:43.286;110.0;277.0
21:05:43.326;245.0;575.0
21:05:43.366;454.0;1100.0
21:05:43.406;558.0;1734.0
21:05:43.446;263.0;1209.0
21:05:43.486;-157.0;243.0
21:05:43.526;-319.0;-260.0
21:05:43.566;-335.0;-422.0
21:05:43.606;-310.0;-463.0
21:05:43.646;-348.0;-569.0
21:05:43.686;-323.0;-633.0
21:05:43.726;-349.0;-661.0
21:05:43.766;-370.0;-696.0
21:05:43.806;-110.0;-104.0
21:05:43.846;37.0;-20.0
21:05:43.886;-181.0;-496.0
21:05:43.926;-155.0;-988.0
21:05:43.966;-630.0;2058.0
21:05:44.006;-271.0;757.0
21:05:44.046;-35.0;182.0
21:05:44.086;178.0;159.0
21:05:44.126;441.0;515.0
21:05:44.166;749.0;1302.0
21:05:44.206;683.0;1461.0
21:05:44.246;272.0;446.0
21:05:44.286;40.0;-292.0
21:05:44.326;-85.0;-583.0
21:05:44.366;-176.0;-675.0
21:05:44.406;-164.0;-727.0
21:05:44.446;-127.0;-682.0
21:05:44.486;-198.0;-741.0
21:05:44.526;-157.0;-735.0
21:05:44.566;-146.0;-664.0
21:05:44.606;84.0;-104.0
21:05:44.646;117.0;-142.0
21:05:44.686;-131.0;-540.0
21:05:44.726;74.0;-1078.0
21:05:44.766;-655.0;-54.0
21:05:44.806;-247.0;-85.0
21:05:44.846;36.0;53.0
21:05:44.886;275.0;306.0
21:05:44.926;529.0;796.0
21:05:44.966;786.0;1578.0
21:05:45.006;664.0;1691.0
21:05:45.046;254.0;634.0
21:05:45.086;-43.0;-97.0
21:05:45.126;-77.0;-335.0
21:05:45.166;-61.0;-383.0
21:05:45.206;-98.0;-483.0
21:05:45.246;-158.0;-593.0
21:05:45.286;-238.0;-649.0
21:05:45.326;-248.0;-658.0
21:05:45.366;-212.0;-580.0
21:05:45.406;-62.0;-342.0
21:05:45.446;53.0;90.0
21:05:45.486;-53.0;-263.0
21:05:45.526;-122.0;-486.0
21:05:45.566;658.0;3350.0
21:05:45.606;493.0;1494.0
21:05:45.646;343.0;590.0
21:05:45.686;366.0;359.0
21:05:45.726;486.0;537.0
21:05:45.766;732.0;1117.0
21:05:45.806;854.0;1684.0
21:05:45.846;563.0;1132.0
21:05:45.886;182.0;234.0
21:05:45.926;-44.0;-217.0
21:05:45.966;-95.0;-328.0
21:05:46.006;-66.0;-329.0
21:05:46.046;-48.0;-350.0
21:05:47.573;-22.0;-340.0
21:05:47.613;61.0;-29.0
21:05:47.653;213.0;298.0
21:05:47.693;-7.0;-204.0
21:05:47.733;-155.0;-488.0
21:05:47.773;-285.0;5767.0
21:05:47.813;-48.0;2481.0
21:05:47.853;96.0;867.0
21:05:47.893;261.0;317.0
21:05:47.933;454.0;352.0
21:05:47.973;752.0;928.0
21:05:48.013;795.0;1368.0
21:05:48.053;342.0;452.0
21:05:48.093;5.0;-340.0
21:05:48.133;-88.0;-628.0
21:05:48.173;-78.0;-669.0
21:05:48.213;-83.0;-651.0
21:05:48.253;-83.0;-655.0
21:05:48.293;-102.0;-709.0
21:05:48.333;-126.0;-732.0
21:05:48.373;14.0;-525.0
21:05:48.413;148.0;-42.0
21:05:48.453;-23.0;-383.0
21:05:48.493;-75.0;-613.0
21:05:48.533;955.0;1530.0
21:05:48.573;557.0;553.0
21:05:48.613;268.0;116.0
21:05:48.653;182.0;106.0
21:05:48.693;300.0;378.0
21:05:48.733;480.0;1025.0
21:05:48.773;600.0;1710.0
21:05:48.813;285.0;1107.0
21:05:48.853;-70.0;142.0
21:05:48.893;-261.0;-377.0
21:05:48.933;-302.0;-518.0
21:05:48.973;-248.0;-500.0
21:05:49.013;-254.0;-574.0
21:05:49.053;-263.0;-625.0
21:05:49.093;-317.0;-662.0
21:05:49.133;-355.0;-707.0
21:05:49.173;-345.0;-667.0
21:05:49.213;-175.0;-171.0
21:05:49.253;2.0;58.0
21:05:49.293;-245.0;-439.0
21:05:49.333;-310.0;-729.0
21:05:49.373;-514.0;5329.0
21:05:49.413;-299.0;2131.0
21:05:49.453;-69.0;609.0
21:05:49.493;106.0;84.0
21:05:49.533;253.0;207.0
21:05:49.573;603.0;901.0
21:05:49.613;660.0;1237.0
21:05:49.653;344.0;311.0
21:05:49.693;28.0;-499.0
21:05:49.733;-79.0;-765.0
21:05:49.773;-123.0;-809.0
21:05:49.813;-96.0;-797.0
21:05:49.853;-112.0;-821.0
21:05:49.893;-204.0;-871.0
21:05:49.933;-227.0;-853.0
21:05:49.973;-169.0;-793.0
21:05:50.013;-136.0;-736.0
21:05:50.053;-142.0;-653.0
21:05:50.093;125.0;-70.0
21:05:50.133;271.0;113.0
21:05:50.173;55.0;-411.0
21:05:50.213;-33.0;-765.0
21:05:50.253;-228.0;4050.0
21:05:50.293;-53.0;1582.0
21:05:50.333;153.0;447.0
21:05:50.373;341.0;153.0
21:05:50.413;562.0;354.0
21:05:50.453;825.0;1008.0
21:05:50.493;846.0;1352.0
21:05:50.533;463.0;400.0
21:05:50.573;163.0;-283.0
21:05:50.613;31.0;-626.0
21:05:50.653;55.0;-646.0
21:05:50.693;50.0;-611.0
21:05:50.733;-10.0;-728.0
21:05:50.773;-89.0;-732.0
21:05:50.813;-97.0;-725.0
21:05:50.853;-84.0;-700.0
21:05:50.893;10.0;-562.0
21:05:50.933;134.0;-53.0
21:05:50.973;-8.0;-294.0
21:05:51.013;-109.0;-547.0
21:05:51.053;809.0;578.0
21:05:51.093;352.0;103.0
21:05:51.133;173.0;12.0
21:05:51.173;182.0;172.0
21:05:51.213;326.0;491.0
21:05:51.253;581.0;1085.0
21:05:51.293;722.0;1726.0
21:05:51.333;527.0;1333.0
21:05:51.373;134.0;370.0
21:05:51.413;-98.0;-141.0
21:05:51.453;-161.0;-333.0
21:05:51.493;-171.0;-383.0
21:05:51.533;-204.0;-457.0
21:05:50.409;-250.0;-546.0
21:05:50.449;-321.0;-578.0
21:05:50.489;-310.0;-561.0
21:05:50.529;-209.0;-165.0
21:05:50.569;-18.0;205.0
21:05:50.609;-221.0;-319.0
21:05:50.649;-288.0;-565.0
21:05:50.689;44.0;5538.0
21:05:50.729;34.0;2323.0
21:05:50.769;29.0;701.0
21:05:50.809;91.0;134.0
21:05:50.849;256.0;188.0
21:05:50.889;533.0;786.0
21:05:50.929;642.0;1359.0
21:05:50.969;241.0;536.0
21:05:51.009;-86.0;-378.0
21:05:51.049;-224.0;-796.0
21:05:51.089;-260.0;-906.0
21:05:51.129;-245.0;-938.0
21:05:51.169;-227.0;-974.0
21:05:51.209;-222.0;-999.0
21:05:51.249;-222.0;-1011.0
21:05:51.289;-273.0;-971.0
21:05:51.329;-307.0;-863.0
21:05:51.369;-205.0;-517.0
21:05:51.409;-79.0;-113.0
21:05:51.449;-244.0;-531.0
21:05:51.489;-334.0;-747.0
21:05:51.529;485.0;3328.0
21:05:51.569;303.0;1424.0
21:05:51.609;156.0;424.0
21:05:51.649;111.0;172.0
21:05:51.689;252.0;337.0
21:05:51.729;531.0;964.0
21:05:51.769;561.0;1562.0
21:05:51.809;205.0;757.0
21:05:51.849;-179.0;-267.0
21:05:51.889;-421.0;-802.0
21:05:51.929;-401.0;-982.0
21:05:51.969;-242.0;-912.0
21:05:52.009;-273.0;-1124.0
21:05:52.049;-311.0;-1321.0
21:05:52.089;-339.0;-1514.0
21:05:52.129;-248.0;-1314.0
21:05:52.169;-16.0;-1111.0
21:05:52.209;-132.0;-1792.0
21:05:52.249;-170.0;-2268.0
21:05:52.289;-233.0;3650.0
21:05:52.329;41.0;102.0
21:05:52.369;253.0;-1784.0
21:05:52.409;464.0;-2620.0
21:05:52.449;718.0;-2838.0
21:05:52.489;983.0;-2499.0
21:05:52.529;993.0;-2434.0
21:05:52.569;525.0;-3559.0
21:05:52.609;172.0;-4442.0
21:05:52.649;-6.0;-4897.0
21:05:52.689;-62.0;-5113.0
21:05:52.729;-83.0;-5199.0
21:05:52.769;-197.0;-5250.0
21:05:52.809;-287.0;-5228.0
21:05:52.849;-132.0;-4657.0
21:05:52.889;-188.0;-4780.0
21:05:52.929;-368.0;-5105.0
21:05:52.969;-52.0;-5583.0
21:05:53.009;-858.0;-4972.0
21:05:53.049;-520.0;-4783.0
21:05:53.089;-268.0;-4563.0
21:05:53.129;-48.0;-4108.0
21:05:53.169;200.0;-3442.0
21:05:53.209;460.0;-2422.0
21:05:53.249;292.0;-2291.0
21:05:53.289;-143.0;-3173.0
21:05:53.329;-392.0;-3627.0
21:05:53.369;-452.0;-3688.0
21:05:53.409;-406.0;-3539.0
21:05:53.449;-355.0;-3414.0
21:05:53.489;-322.0;-3236.0
21:05:53.529;-162.0;-2644.0
21:05:53.569;-309.0;-2771.0
21:05:53.609;-504.0;-2993.0
21:05:53.649;310.0;-2164.0
21:05:53.689;-173.0;-2341.0
21:05:53.729;-276.0;-2122.0
21:05:53.769;-217.0;-1641.0
21:05:53.809;-45.0;-1022.0
21:05:53.849;188.0;-121.0
21:05:53.889;387.0;861.0
21:05:53.929;133.0;593.0
21:05:53.969;-233.0;-219.0
21:05:54.009;-387.0;-533.0
21:05:54.049;-366.0;-477.0
21:05:54.089;-345.0;-372.0
21:05:54.129;-165.0;69.0
21:05:54.169;-60.0;511.0
21:05:54.209;-327.0;104.0
21:05:54.249;-476.0;-144.0
21:05:54.289;322.0;3701.0
21:05:54.329;95.0;1895.0
21:05:54.369;-87.0;983.0
21:05:54.524;-118.0;726.0
21:05:54.564;319.0;1671.0
21:05:54.604;369.0;1991.0
21:05:54.644;17.0;912.0
21:05:54.684;-290.0;92.0
21:05:54.724;-385.0;-244.0
21:05:54.764;-348.0;-442.0
21:05:54.804;-297.0;-568.0
21:05:54.844;-60.0;-46.0
21:05:54.884;-136.0;-425.0
21:05:54.924;-339.0;-877.0
21:05:54.964;148.0;-1124.0
21:05:55.004;-551.0;-1034.0
21:05:55.044;-341.0;-637.0
21:05:55.084;-143.0;-337.0
21:05:55.124;149.0;199.0
21:05:55.164;491.0;948.0
21:05:55.204;697.0;1774.0
21:05:55.244;411.0;1495.0
21:05:55.284;-97.0;521.0
21:05:55.324;-220.0;115.0
21:05:55.364;-217.0;-8.0
21:05:55.404;-116.0;42.0
21:05:55.444;-87.0;37.0
21:05:55.484;-100.0;-31.0
21:05:55.524;156.0;597.0
21:05:55.564;125.0;481.0
21:05:55.604;-53.0;146.0
21:05:55.644;368.0;-154.0
21:05:55.684;-464.0;282.0
21:05:55.724;-129.0;608.0
21:05:55.764;94.0;900.0
21:05:55.804;388.0;1305.0
21:05:55.844;703.0;1903.0
21:05:55.884;983.0;2616.0
21:05:55.924;771.0;2496.0
21:05:55.964;399.0;1599.0
21:05:56.004;228.0;1180.0
21:05:56.044;247.0;1044.0
21:05:56.084;207.0;970.0
21:05:56.124;212.0;877.0
21:05:56.164;115.0;767.0
21:05:56.204;292.0;1352.0
21:05:56.244;182.0;1124.0
21:05:56.284;19.0;752.0
21:05:56.324;414.0;398.0
21:05:56.364;-441.0;775.0
21:05:56.404;-117.0;981.0
21:05:56.444;97.0;1209.0
21:05:56.484;349.0;1596.0
21:05:56.524;586.0;2186.0
21:05:56.564;810.0;2885.0
21:05:56.604;614.0;2675.0
21:05:56.644;242.0;1737.0
21:05:56.684;5.0;1175.0
21:05:56.724;-18.0;1002.0
21:05:56.764;-50.0;917.0
21:05:56.804;-71.0;794.0
21:05:56.844;-155.0;701.0
21:05:56.884;-179.0;633.0
21:05:56.924;-133.0;637.0
21:05:56.964;-10.0;1069.0
21:05:57.004;-153.0;771.0
21:05:57.044;-319.0;441.0
21:05:57.084;712.0;1580.0
21:05:57.124;266.0;1016.0
21:05:57.164;14.0;846.0
21:05:57.204;-6.0;951.0
21:05:57.244;150.0;1294.0
21:05:57.284;387.0;1927.0
21:05:57.324;533.0;2576.0
21:05:57.364;324.0;2073.0
21:05:57.404;-71.0;1029.0
21:05:57.444;-240.0;550.0
21:05:57.484;-244.0;412.0
21:05:57.524;-208.0;306.0
21:05:57.564;-206.0;218.0
21:05:57.604;-208.0;163.0
21:05:57.644;-220.0;127.0
21:05:57.684;-239.0;73.0
21:05:57.724;-143.0;181.0
21:05:57.764;-19.0;570.0
21:05:57.804;-162.0;237.0
21:05:57.844;-297.0;-41.0
21:05:57.884;636.0;738.0
21:05:57.924;194.0;417.0
21:05:57.964;-39.0;349.0
21:05:58.004;-48.0;523.0
21:05:58.044;71.0;870.0
21:05:58.084;308.0;1426.0
21:05:58.124;512.0;2007.0
21:05:58.164;401.0;1716.0
21:05:58.204;-42.0;573.0
21:05:58.244;-205.0;-18.0
21:05:58.284;-267.0;-321.0
21:05:58.324;-218.0;-456.0
21:05:58.364;-233.0;-715.0
21:05:58.404;-211.0;-870.0
21:05:58.444;-229.0;-1065.0
21:05:58.484;-216.0;-1269.0
21:05:58.639;-55.0;-1098.0
21:05:58.679;-153.0;-1683.0
21:05:58.719;-185.0;-2274.0
21:05:58.759;859.0;-293.0
21:05:58.799;581.0;-1651.0
21:05:58.839;369.0;-2374.0
21:05:58.879;348.0;-2711.0
21:05:58.919;459.0;-2774.0
21:05:58.959;753.0;-2513.0
21:05:58.999;914.0;-2242.0
21:05:59.039;689.0;-2965.0
21:05:59.079;332.0;-3989.0
21:05:59.119;275.0;-4434.0
21:05:59.159;318.0;-4519.0
21:05:59.199;318.0;-4568.0
21:05:59.239;313.0;-4577.0
21:05:59.279;220.0;-4589.0
21:05:59.319;147.0;-4482.0
21:05:59.359;166.0;-4280.0
21:05:59.399;273.0;-3746.0
21:05:59.439;105.0;-3945.0
21:05:59.479;-13.0;-4143.0
21:05:59.519;949.0;-2755.0
21:05:59.559;494.0;-3233.0
21:05:59.599;295.0;-3177.0
21:05:59.639;235.0;-2918.0
21:05:59.679;350.0;-2415.0
21:05:59.719;588.0;-1569.0
21:05:59.759;661.0;-779.0
21:05:59.799;346.0;-1104.0
21:05:59.839;-53.0;-1912.0
21:05:59.879;-264.0;-2178.0
21:05:59.919;-325.0;-2154.0
21:05:59.959;-271.0;-1989.0
21:05:59.999;-255.0;-1860.0
21:06:00.039;-277.0;-1742.0
21:06:00.079;-315.0;-1553.0
21:06:00.119;-337.0;-1363.0
21:06:00.159;-124.0;-666.0
21:06:00.199;30.0;-311.0
21:06:00.239;-261.0;-653.0
21:06:00.279;-409.0;-762.0
21:06:00.319;-622.0;5577.0
21:06:00.359;-305.0;2552.0
21:06:00.399;-148.0;1172.0
21:06:00.439;67.0;797.0
21:06:00.479;298.0;1078.0
21:06:00.519;577.0;1880.0
21:06:00.559;604.0;2370.0
21:06:00.599;221.0;1509.0
21:06:00.639;-70.0;819.0
21:06:00.679;-177.0;644.0
21:06:00.719;-168.0;710.0
21:06:00.759;-176.0;750.0
21:06:00.799;-247.0;704.0
21:06:00.839;-239.0;724.0
21:06:00.879;-266.0;679.0
21:06:00.919;-163.0;812.0
21:06:00.959;97.0;1368.0
21:06:00.999;141.0;1207.0
21:06:01.039;-16.0;796.0
21:06:01.079;398.0;370.0
21:06:01.119;-510.0;561.0
21:06:01.159;-141.0;765.0
21:06:01.199;98.0;951.0
21:06:01.239;316.0;1231.0
21:06:01.279;599.0;1653.0
21:06:01.319;854.0;2202.0
21:06:01.359;759.0;1937.0
21:06:01.399;286.0;736.0
21:06:01.439;55.0;-8.0
21:06:01.479;-7.0;-341.0
21:06:01.519;-15.0;-529.0
21:06:01.559;-6.0;-641.0
21:06:01.599;-9.0;-758.0
21:06:01.639;-32.0;-827.0
21:06:01.679;58.0;-563.0
21:06:01.719;181.0;-219.0
21:06:01.759;21.0;-740.0
21:06:01.799;17.0;-845.0
21:06:01.839;474.0;3842.0
21:06:01.879;312.0;1385.0
21:06:01.919;289.0;226.0
21:06:01.959;306.0;-115.0
21:06:01.999;465.0;20.0
21:06:02.039;696.0;614.0
21:06:02.079;762.0;1149.0
21:06:02.119;352.0;371.0
21:06:02.159;-13.0;-340.0
21:06:02.199;-206.0;-688.0
21:06:02.239;-252.0;-727.0
21:06:02.279;-222.0;-652.0
21:06:02.319;-328.0;-742.0
21:06:02.359;-358.0;-780.0
21:06:02.399;-340.0;-728.0
21:06:02.439;-167.0;-139.0
21:06:02.479;-139.0;-56.0
21:06:02.519;-317.0;-416.0
21:06:02.559;-227.0;-743.0
21:06:02.599;-741.0;2032.0
21:06:02.845;-418.0;1023.0
21:06:02.885;-63.0;933.0
21:06:02.925;184.0;1230.0
21:06:02.965;536.0;2015.0
21:06:03.005;545.0;2281.0
21:06:03.045;121.0;1238.0
21:06:03.085;-193.0;486.0
21:06:03.125;-297.0;275.0
21:06:03.165;-302.0;230.0
21:06:03.205;-344.0;143.0
21:06:03.245;-372.0;107.0
21:06:03.285;-344.0;110.0
21:06:03.325;-352.0;147.0
21:06:03.365;-336.0;220.0
21:06:03.405;-116.0;735.0
21:06:03.445;-103.0;705.0
21:06:03.485;-294.0;315.0
21:06:03.525;-93.0;-165.0
21:06:03.565;-741.0;966.0
21:06:03.605;-331.0;941.0
21:06:03.645;-121.0;932.0
21:06:03.685;88.0;1202.0
21:06:03.725;404.0;1729.0
21:06:03.765;722.0;2602.0
21:06:03.805;601.0;2697.0
21:06:03.845;179.0;1636.0
21:06:03.885;-66.0;914.0
21:06:03.925;-140.0;657.0
21:06:03.965;-80.0;650.0
21:06:04.005;-30.0;608.0
21:06:04.045;-55.0;508.0
21:06:04.085;-97.0;434.0
21:06:04.125;-80.0;417.0
21:06:04.165;-28.0;470.0
21:06:04.205;-87.0;403.0
21:06:04.245;150.0;937.0
21:06:04.285;200.0;927.0
21:06:04.325;12.0;556.0
21:06:04.365;126.0;14.0
21:06:04.405;-461.0;1648.0
21:06:04.445;-110.0;1236.0
21:06:04.485;102.0;1028.0
21:06:04.525;334.0;1198.0
21:06:04.565;585.0;1675.0
21:06:04.605;904.0;2390.0
21:06:04.645;813.0;2459.0
21:06:04.685;347.0;1394.0
21:06:04.725;80.0;646.0
21:06:04.765;-15.0;363.0
21:06:04.805;36.0;274.0
21:06:04.845;54.0;181.0
21:06:04.885;70.0;119.0
21:06:04.925;79.0;-4.0
21:06:04.965;114.0;-24.0
21:06:05.005;80.0;-24.0
21:06:05.045;267.0;462.0
21:06:05.085;180.0;237.0
21:06:05.125;122.0;-20.0
21:06:05.165;844.0;559.0
21:06:05.205;342.0;220.0
21:06:05.245;343.0;417.0
21:06:05.285;380.0;591.0
21:06:05.325;467.0;881.0
21:06:05.365;665.0;1397.0
21:06:05.405;823.0;2000.0
21:06:05.445;607.0;1622.0
21:06:05.485;248.0;677.0
21:06:05.525;-5.0;79.0
21:06:05.565;-73.0;-121.0
21:06:05.605;-51.0;-196.0
21:06:05.645;-46.0;-209.0
21:06:05.685;-124.0;-324.0
21:06:05.725;-166.0;-402.0
21:06:05.765;-197.0;-454.0
21:06:05.805;-107.0;-195.0
21:06:05.845;-37.0;197.0
21:06:05.885;-187.0;-154.0
21:06:05.925;-296.0;-440.0
21:06:05.965;716.0;2392.0
21:06:06.005;358.0;1083.0
21:06:06.045;85.0;442.0
21:06:06.085;29.0;350.0
21:06:06.125;142.0;530.0
21:06:06.165;376.0;1182.0
21:06:06.205;485.0;1820.0
21:06:06.245;167.0;1146.0
21:06:06.285;-184.0;141.0
21:06:06.325;-340.0;-305.0
21:06:06.365;-402.0;-480.0
21:06:06.405;-361.0;-449.0
21:06:06.445;-364.0;-476.0
21:06:06.485;-412.0;-526.0
21:06:06.525;-451.0;-543.0
21:06:06.565;-494.0;-547.0
21:06:06.605;-455.0;-533.0
21:06:06.645;-478.0;-528.0
21:06:06.685;-326.0;-62.0
21:06:06.725;-60.0;358.0
21:06:06.765;-245.0;-135.0
21:06:06.805;-406.0;-430.0
21:06:07.045;-75.0;5583.0
21:06:07.085;-119.0;2312.0
21:06:07.125;-55.0;921.0
21:06:07.165;151.0;583.0
21:06:07.205;428.0;981.0
21:06:07.245;583.0;1611.0
21:06:07.285;335.0;1105.0
21:06:07.325;-84.0;13.0
21:06:07.365;-293.0;-552.0
21:06:07.405;-297.0;-636.0
21:06:07.445;-229.0;-589.0
21:06:07.485;-175.0;-548.0
21:06:07.525;-130.0;-566.0
21:06:07.565;-77.0;-488.0
21:06:07.605;-81.0;-416.0
21:06:07.645;-71.0;-400.0
21:06:07.685;-65.0;-312.0
21:06:07.725;71.0;-77.0
21:06:07.765;182.0;389.0
21:06:07.805;67.0;95.0
21:06:07.845;-20.0;-173.0
21:06:07.885;978.0;2822.0
21:06:07.925;613.0;1378.0
21:06:07.965;414.0;721.0
21:06:08.005;382.0;622.0
21:06:08.045;535.0;837.0
21:06:08.085;783.0;1370.0
21:06:08.125;910.0;1947.0
21:06:08.165;624.0;1365.0
21:06:08.205;292.0;369.0
21:06:08.245;115.0;-61.0
21:06:08.285;113.0;-179.0
21:06:08.325;109.0;-260.0
21:06:08.365;117.0;-295.0
21:06:08.405;109.0;-309.0
21:06:08.445;71.0;-330.0
21:06:08.485;67.0;-341.0
21:06:08.525;173.0;46.0
21:06:08.565;383.0;358.0
21:06:08.605;115.0;-195.0
21:06:08.645;-18.0;-461.0
21:06:08.685;-201.0;5704.0
21:06:08.725;53.0;2449.0
21:06:08.765;224.0;820.0
21:06:08.805;305.0;214.0
21:06:08.845;505.0;196.0
21:06:08.885;762.0;744.0
21:06:08.925;869.0;1245.0
21:06:08.965;447.0;273.0
21:06:09.005;142.0;-581.0
21:06:09.045;-53.0;-971.0
21:06:09.085;-87.0;-1031.0
21:06:09.125;-135.0;-1044.0
21:06:09.165;-147.0;-1051.0
21:06:09.205;-200.0;-1076.0
21:06:09.245;-217.0;-1096.0
21:06:09.285;-237.0;-1086.0
21:06:09.325;-25.0;-491.0
21:06:09.365;63.0;-385.0
21:06:09.405;-184.0;-840.0
21:06:09.445;-58.0;-1272.0
21:06:09.485;-577.0;2017.0
21:06:09.525;-252.0;650.0
21:06:09.565;14.0;81.0
21:06:09.605;170.0;18.0
21:06:09.645;375.0;441.0
21:06:09.685;709.0;1220.0
21:06:09.725;687.0;1498.0
21:06:09.765;274.0;500.0
21:06:09.805;-66.0;-292.0
21:06:09.845;-173.0;-542.0
21:06:09.885;-195.0;-660.0
21:06:09.925;-166.0;-672.0
21:06:09.965;-201.0;-720.0
21:06:10.005;-278.0;-745.0
21:06:10.045;-260.0;-684.0
21:06:10.085;-162.0;-670.0
21:06:10.125;-181.0;-553.0
21:06:10.165;46.0;12.0
21:06:10.205;-68.0;-273.0
21:06:10.245;-175.0;-519.0
21:06:10.285;711.0;156.0
21:06:10.325;252.0;-117.0
21:06:10.365;121.0;-18.0
21:06:10.405;88.0;168.0
21:06:10.445;229.0;545.0
21:06:10.485;474.0;1240.0
21:06:10.525;708.0;2077.0
21:06:10.565;489.0;1782.0
21:06:10.605;98.0;728.0
21:06:10.645;-109.0;142.0
21:06:10.685;-141.0;-97.0
21:06:10.725;-166.0;-140.0
21:06:10.765;-163.0;-234.0
21:06:10.805;-167.0;-287.0
21:06:10.845;-91.0;-228.0
21:06:10.885;-119.0;-261.0
21:06:10.925;-162.0;-306.0
21:06:10.965;-3.0;145.0
21:06:11.005;-25.0;-21.0
21:06:10.994;-118.0;-264.0
21:06:11.034;-641.0;893.0
21:06:11.074;-156.0;521.0
21:06:11.114;168.0;454.0
21:06:11.154;402.0;610.0
21:06:11.194;700.0;1141.0
21:06:11.234;948.0;1828.0
21:06:11.274;876.0;1906.0
21:06:11.314;478.0;909.0
21:06:11.354;192.0;187.0
21:06:11.394;64.0;-93.0
21:06:11.434;29.0;-170.0
21:06:11.474;43.0;-197.0
21:06:11.514;-24.0;-331.0
21:06:11.554;-20.0;-342.0
21:06:11.594;37.0;-223.0
21:06:11.634;94.0;175.0
21:06:11.674;7.0;-205.0
21:06:11.714;-52.0;-484.0
21:06:11.754;917.0;1725.0
21:06:11.794;520.0;576.0
21:06:11.834;277.0;8.0
21:06:11.874;187.0;-196.0
21:06:11.914;310.0;-34.0
21:06:11.954;577.0;542.0
21:06:11.994;675.0;1023.0
21:06:12.034;343.0;177.0
21:06:12.074;-45.0;-916.0
21:06:12.114;-266.0;-1578.0
21:06:12.154;-329.0;-1935.0
21:06:12.194;-263.0;-2160.0
21:06:12.234;-247.0;-2457.0
21:06:12.274;-285.0;-2740.0
21:06:12.314;-348.0;-3007.0
21:06:12.354;-374.0;-3243.0
21:06:12.394;-283.0;-3161.0
21:06:12.434;-92.0;-3004.0
21:06:12.474;-274.0;-3714.0
21:06:12.514;-412.0;-4213.0
21:06:12.554;-8.0;953.0
21:06:12.594;-104.0;-2057.0
21:06:12.634;-132.0;-3765.0
21:06:12.674;-31.0;-4453.0
21:06:12.714;118.0;-4579.0
21:06:12.754;465.0;-4047.0
21:06:12.794;504.0;-3680.0
21:06:12.834;166.0;-4516.0
21:06:12.874;-169.0;-5239.0
21:06:12.914;-308.0;-5409.0
21:06:12.954;-323.0;-5204.0
21:06:12.994;-357.0;-4992.0
21:06:13.034;-372.0;-4836.0
21:06:13.074;-442.0;-4638.0
21:06:13.114;-428.0;-4331.0
21:06:13.154;-500.0;-4089.0
21:06:13.194;-459.0;-3786.0
21:06:13.234;-267.0;-2993.0
21:06:13.274;-351.0;-2978.0
21:06:13.314;-497.0;-3035.0
21:06:13.354;152.0;-2570.0
21:06:13.394;-325.0;-2429.0
21:06:13.434;-249.0;-1922.0
21:06:13.474;-113.0;-1428.0
21:06:13.514;82.0;-822.0
21:06:13.554;354.0;3.0
21:06:13.594;618.0;923.0
21:06:13.634;411.0;787.0
21:06:13.674;17.0;-127.0
21:06:13.714;-155.0;-649.0
21:06:13.754;-216.0;-733.0
21:06:13.794;-196.0;-688.0
21:06:13.834;-174.0;-609.0
21:06:13.874;-218.0;-592.0
21:06:13.914;-210.0;-495.0
21:06:13.954;-252.0;-430.0
21:06:13.994;-186.0;-179.0
21:06:14.034;30.0;514.0
21:06:14.074;-153.0;297.0
21:06:14.114;-199.0;132.0
21:06:14.154;744.0;1585.0
21:06:14.194;327.0;1110.0
21:06:14.234;188.0;1022.0
21:06:14.274;213.0;1299.0
21:06:14.314;334.0;1675.0
21:06:14.354;579.0;2342.0
21:06:14.394;661.0;3048.0
21:06:14.434;432.0;2667.0
21:06:14.474;12.0;1730.0
21:06:14.514;-165.0;1331.0
21:06:14.554;-258.0;1171.0
21:06:14.594;-288.0;1085.0
21:06:14.634;-321.0;983.0
21:06:14.674;-339.0;907.0
21:06:14.714;-346.0;897.0
21:06:14.754;-362.0;892.0
21:06:14.794;-250.0;1229.0
21:06:14.834;-87.0;1546.0
21:06:14.874;-347.0;971.0
21:06:14.914;-436.0;690.0
21:06:14.954;-167.0;6629.0
21:06:15.072;-127.0;3508.0
21:06:15.112;-47.0;2135.0
21:06:15.152;139.0;1848.0
21:06:15.192;370.0;2204.0
21:06:15.232;472.0;2639.0
21:06:15.272;158.0;1811.0
21:06:15.312;-170.0;864.0
21:06:15.352;-331.0;392.0
21:06:15.392;-341.0;299.0
21:06:15.432;-299.0;317.0
21:06:15.472;-299.0;262.0
21:06:15.512;-317.0;207.0
21:06:15.552;-366.0;156.0
21:06:15.592;-380.0;150.0
21:06:15.632;-332.0;178.0
21:06:15.672;-263.0;368.0
21:06:15.712;-139.0;824.0
21:06:15.752;-323.0;411.0
21:06:15.792;-391.0;155.0
21:06:15.832;720.0;3133.0
21:06:15.872;373.0;1782.0
21:06:15.912;75.0;1016.0
21:06:15.952;6.0;866.0
21:06:15.992;110.0;1036.0
21:06:16.032;383.0;1641.0
21:06:16.072;488.0;2244.0
21:06:16.112;202.0;1650.0
21:06:16.152;-148.0;613.0
21:06:16.192;-311.0;115.0
21:06:16.232;-275.0;-23.0
21:06:16.272;-273.0;-60.0
21:06:16.312;-280.0;-135.0
21:06:16.352;-332.0;-207.0
21:06:16.392;-359.0;-232.0
21:06:16.432;-322.0;-229.0
21:06:16.472;-294.0;-189.0
21:06:16.512;-248.0;-118.0
21:06:16.552;-234.0;-34.0
21:06:16.592;-17.0;452.0
21:06:16.632;-4.0;329.0
21:06:16.672;-54.0;19.0
21:06:16.712;588.0;166.0
21:06:16.752;-14.0;43.0
21:06:16.792;61.0;255.0
21:06:16.832;169.0;443.0
21:06:16.872;281.0;815.0
21:06:16.912;549.0;1414.0
21:06:16.952;750.0;2141.0
21:06:16.992;617.0;2022.0
21:06:17.032;260.0;997.0
21:06:17.072;38.0;358.0
21:06:17.112;-33.0;99.0
21:06:17.152;-15.0;33.0
21:06:17.192;39.0;-2.0
21:06:17.232;44.0;-109.0
21:06:17.272;-2.0;-190.0
21:06:17.312;5.0;-141.0
21:06:17.352;42.0;-103.0
21:06:17.392;215.0;260.0
21:06:17.432;335.0;607.0
21:06:17.472;97.0;111.0
21:06:17.512;1.0;-128.0
21:06:17.552;-76.0;6016.0
21:06:17.592;201.0;2837.0
21:06:17.632;328.0;1250.0
21:06:17.672;460.0;665.0
21:06:17.712;635.0;668.0
21:06:17.752;910.0;1204.0
21:06:17.792;964.0;1641.0
21:06:17.832;550.0;781.0
21:06:17.872;111.0;-65.0
21:06:17.912;-36.0;-446.0
21:06:17.952;-121.0;-516.0
21:06:17.992;-105.0;-553.0
21:06:18.032;-108.0;-561.0
21:06:18.072;-138.0;-607.0
21:06:18.112;-177.0;-678.0
21:06:18.152;-193.0;-584.0
21:06:18.192;-145.0;-95.0
21:06:18.232;-140.0;-283.0
21:06:18.272;-238.0;-553.0
21:06:18.312;474.0;-208.0
21:06:18.352;-36.0;-401.0
21:06:18.392;-21.0;-172.0
21:06:18.432;85.0;127.0
21:06:18.472;218.0;561.0
21:06:18.512;423.0;1181.0
21:06:18.552;635.0;1946.0
21:06:18.592;452.0;1704.0
21:06:18.632;46.0;656.0
21:06:18.672;-211.0;71.0
21:06:18.712;-266.0;-160.0
21:06:18.752;-293.0;-238.0
21:06:18.792;-265.0;-298.0
21:06:18.832;-305.0;-371.0
21:06:18.872;-382.0;-477.0
21:06:18.912;-427.0;-524.0
21:06:18.952;-273.0;-130.0
21:06:18.992;-84.0;118.0
21:06:19.032;-328.0;-405.0
21:06:19.188;-443.0;-634.0
21:06:19.228;-112.0;-237.0
21:06:19.268;-73.0;-112.0
21:06:19.308;44.0;203.0
21:06:19.348;218.0;658.0
21:06:19.388;429.0;1296.0
21:06:19.428;618.0;2049.0
21:06:19.468;311.0;1333.0
21:06:19.508;-32.0;315.0
21:06:19.548;-220.0;-175.0
21:06:19.588;-306.0;-315.0
21:06:19.628;-249.0;-324.0
21:06:19.668;-262.0;-364.0
21:06:19.708;-279.0;-444.0
21:06:19.748;-212.0;-424.0
21:06:19.788;-222.0;-436.0
21:06:19.828;-187.0;-360.0
21:06:19.868;-5.0;137.0
21:06:19.908;-27.0;-25.0
21:06:19.948;-182.0;-337.0
21:06:19.988;511.0;-121.0
21:06:20.028;-8.0;-313.0
21:06:20.068;-31.0;-97.0
21:06:20.108;99.0;255.0
21:06:20.148;292.0;657.0
21:06:20.188;492.0;1232.0
21:06:20.228;665.0;1968.0
21:06:20.268;436.0;1760.0
21:06:20.308;34.0;661.0
21:06:20.348;-174.0;74.0
21:06:20.388;-268.0;-173.0
21:06:20.428;-190.0;-172.0
21:06:20.468;-172.0;-233.0
21:06:20.508;-218.0;-323.0
21:06:20.548;-207.0;-338.0
21:06:20.588;-162.0;-314.0
21:06:20.628;-134.0;-288.0
21:06:20.668;-50.0;-157.0
21:06:20.708;101.0;347.0
21:06:20.748;57.0;207.0
21:06:20.788;-11.0;-93.0
21:06:20.828;983.0;1452.0
21:06:20.868;586.0;726.0
21:06:20.908;367.0;509.0
21:06:20.948;325.0;559.0
21:06:20.988;462.0;861.0
21:06:21.028;705.0;1497.0
21:06:21.068;871.0;2138.0
21:06:21.108;597.0;1685.0
21:06:21.148;205.0;679.0
21:06:21.188;51.0;235.0
21:06:21.228;3.0;80.0
21:06:21.268;-11.0;8.0
21:06:21.308;-9.0;-93.0
21:06:21.348;-30.0;-162.0
21:06:21.388;-19.0;-167.0
21:06:21.428;-48.0;-173.0
21:06:21.468;191.0;400.0
21:06:21.508;124.0;164.0
21:06:21.548;-39.0;-189.0
21:06:21.588;378.0;-431.0
21:06:21.628;-530.0;-117.0
21:06:21.668;-133.0;133.0
21:06:21.708;129.0;398.0
21:06:21.748;351.0;743.0
21:06:21.788;610.0;1295.0
21:06:21.828;893.0;2041.0
21:06:21.868;666.0;1878.0
21:06:21.908;217.0;750.0
21:06:21.948;-51.0;145.0
21:06:21.988;-115.0;-126.0
21:06:22.028;-124.0;-231.0
21:06:22.068;-156.0;-282.0
21:06:22.108;-197.0;-371.0
21:06:22.148;-199.0;-417.0
21:06:22.188;-214.0;-461.0
21:06:22.228;-199.0;-441.0
21:06:22.268;-109.0;-213.0
21:06:22.308;-26.0;182.0
21:06:22.348;-243.0;-252.0
21:06:22.388;-398.0;-566.0
21:06:22.428;628.0;2641.0
21:06:22.468;274.0;1131.0
21:06:22.508;4.0;298.0
21:06:22.548;-22.0;134.0
21:06:22.588;32.0;299.0
21:06:22.628;317.0;998.0
21:06:22.668;501.0;1713.0
21:06:22.708;245.0;1107.0
21:06:22.748;-133.0;109.0
21:06:22.788;-313.0;-373.0
21:06:22.828;-334.0;-556.0
21:06:22.868;-335.0;-563.0
21:06:22.908;-363.0;-623.0
21:06:22.948;-354.0;-652.0
21:06:22.988;-423.0;-697.0
21:06:23.028;-452.0;-635.0
21:06:23.068;-489.0;-634.0
21:06:23.108;-533.0;-607.0
21:06:23.148;-469.0;-521.0
21:06:23.383;-333.0;3.0
21:06:23.423;-432.0;-370.0
21:06:23.463;-420.0;-769.0
21:06:23.503;-862.0;2235.0
21:06:23.543;-519.0;973.0
21:06:23.583;-291.0;430.0
21:06:23.623;-98.0;400.0
21:06:23.663;194.0;795.0
21:06:23.703;556.0;1593.0
21:06:23.743;608.0;1883.0
21:06:23.783;245.0;821.0
21:06:23.823;-79.0;-18.0
21:06:23.863;-176.0;-317.0
21:06:23.903;-194.0;-426.0
21:06:23.943;-181.0;-407.0
21:06:23.983;-164.0;-458.0
21:06:24.023;-190.0;-525.0
21:06:24.063;-179.0;-537.0
21:06:24.103;-189.0;-549.0
21:06:24.143;-201.0;-553.0
21:06:24.183;-137.0;-427.0
21:06:24.223;148.0;107.0
21:06:24.263;150.0;81.0
21:06:24.303;50.0;-191.0
21:06:24.343;359.0;-700.0
21:06:24.383;-501.0;-47.0
21:06:24.423;-103.0;177.0
21:06:24.463;198.0;409.0
21:06:24.503;415.0;759.0
21:06:24.543;700.0;1304.0
21:06:24.583;996.0;2125.0
21:06:24.623;874.0;2153.0
21:06:24.663;436.0;1101.0
21:06:24.703;132.0;401.0
21:06:24.743;16.0;64.0
21:06:24.783;-31.0;-45.0
21:06:24.823;-55.0;-83.0
21:06:24.863;-71.0;-177.0
21:06:24.903;-187.0;-256.0
21:06:24.943;-198.0;-312.0
21:06:24.983;-208.0;-318.0
21:06:25.023;-188.0;-290.0
21:06:25.063;-67.0;73.0
21:06:25.103;96.0;340.0
21:06:25.143;-124.0;-157.0
21:06:25.183;-261.0;-446.0
21:06:25.223;-259.0;5915.0
21:06:25.263;-85.0;2549.0
21:06:25.303;0.0;846.0
21:06:25.343;94.0;237.0
21:06:25.383;288.0;320.0
21:06:25.423;575.0;976.0
21:06:25.463;647.0;1499.0
21:06:25.503;351.0;583.0
21:06:25.543;-35.0;-332.0
21:06:25.583;-251.0;-806.0
21:06:25.623;-269.0;-881.0
21:06:25.663;-259.0;-881.0
21:06:25.703;-283.0;-898.0
21:06:25.743;-298.0;-923.0
21:06:25.783;-325.0;-917.0
21:06:25.823;-339.0;-919.0
21:06:25.863;-380.0;-892.0
21:06:25.903;-370.0;-798.0
21:06:25.943;-289.0;-599.0
21:06:25.983;-127.0;-99.0
21:06:26.023;-277.0;-442.0
21:06:26.063;-391.0;-705.0
21:06:26.103;660.0;684.0
21:06:26.143;264.0;172.0
21:06:26.183;-25.0;-39.0
21:06:26.223;-18.0;103.0
21:06:26.263;107.0;472.0
21:06:26.303;404.0;1202.0
21:06:26.343;601.0;2023.0
21:06:26.383;337.0;1636.0
21:06:26.423;-40.0;512.0
21:06:26.463;-222.0;-121.0
21:06:26.503;-345.0;-313.0
21:06:26.543;-269.0;-376.0
21:06:26.583;-244.0;-435.0
21:06:26.623;-228.0;-445.0
21:06:26.663;-236.0;-431.0
21:06:26.703;-244.0;-424.0
21:06:26.743;-209.0;-428.0
21:06:26.783;-194.0;-410.0
21:06:26.823;-110.0;-291.0
21:06:26.863;53.0;168.0
21:06:26.903;-31.0;-85.0
21:06:26.943;-72.0;-322.0
21:06:26.983;930.0;1473.0
21:06:27.023;449.0;574.0
21:06:27.063;284.0;299.0
21:06:27.103;246.0;388.0
21:06:27.143;411.0;691.0
21:06:27.183;682.0;1352.0
21:06:27.223;858.0;2060.0
21:06:27.263;574.0;1638.0
21:06:27.303;172.0;567.0
21:06:27.343;6.0;21.0
21:06:27.607;-55.0;-204.0
21:06:27.647;-82.0;-278.0
21:06:27.687;-53.0;-367.0
21:06:27.727;-93.0;-411.0
21:06:27.767;-117.0;-485.0
21:06:27.807;-45.0;-289.0
21:06:27.847;60.0;163.0
21:06:27.887;-46.0;-171.0
21:06:27.927;-90.0;-405.0
21:06:27.967;848.0;2460.0
21:06:28.007;524.0;1073.0
21:06:28.047;286.0;376.0
21:06:28.087;239.0;266.0
21:06:28.127;363.0;493.0
21:06:28.167;594.0;1142.0
21:06:28.207;702.0;1813.0
21:06:28.247;421.0;1240.0
21:06:28.287;10.0;204.0
21:06:28.327;-203.0;-378.0
21:06:28.367;-247.0;-527.0
21:06:28.407;-196.0;-539.0
21:06:28.447;-228.0;-586.0
21:06:28.487;-279.0;-644.0
21:06:28.527;-344.0;-675.0
21:06:28.567;-370.0;-700.0
21:06:28.607;-355.0;-625.0
21:06:28.647;-138.0;-85.0
21:06:28.687;-104.0;-164.0
21:06:28.727;-300.0;-599.0
21:06:28.767;-54.0;-1144.0
21:06:28.807;-814.0;-604.0
21:06:28.847;-435.0;-318.0
21:06:28.887;-228.0;-88.0
21:06:28.927;48.0;305.0
21:06:28.967;380.0;955.0
21:06:29.007;610.0;1798.0
21:06:29.047;509.0;1939.0
21:06:29.087;110.0;787.0
21:06:29.127;-141.0;25.0
21:06:29.167;-272.0;-317.0
21:06:29.207;-296.0;-366.0
21:06:29.247;-296.0;-456.0
21:06:29.287;-312.0;-517.0
21:06:29.327;-364.0;-607.0
21:06:29.367;-394.0;-669.0
21:06:29.407;-427.0;-659.0
21:06:29.447;-394.0;-608.0
21:06:29.487;-184.0;-192.0
21:06:29.527;-292.0;-452.0
21:06:29.567;-402.0;-751.0
21:06:29.607;567.0;122.0
21:06:29.647;67.0;-252.0
21:06:29.687;7.0;-274.0
21:06:29.727;67.0;-57.0
21:06:29.767;246.0;249.0
21:06:29.807;529.0;850.0
21:06:29.847;687.0;1546.0
21:06:29.887;483.0;1268.0
21:06:29.927;91.0;205.0
21:06:29.967;-131.0;-445.0
21:06:30.007;-119.0;-650.0
21:06:30.047;-84.0;-653.0
21:06:30.087;-54.0;-703.0
21:06:30.127;-43.0;-748.0
21:06:30.167;-43.0;-806.0
21:06:30.207;-100.0;-824.0
21:06:30.247;42.0;-435.0
21:06:30.287;101.0;-465.0
21:06:30.327;-52.0;-766.0
21:06:30.367;168.0;-1350.0
21:06:30.407;-633.0;-322.0
21:06:30.447;-216.0;-265.0
21:06:30.487;48.0;-140.0
21:06:30.527;220.0;104.0
21:06:30.567;489.0;596.0
21:06:30.607;814.0;1422.0
21:06:30.647;634.0;1464.0
21:06:30.687;254.0;470.0
21:06:30.727;-1.0;-187.0
21:06:30.767;-92.0;-481.0
21:06:30.807;-88.0;-560.0
21:06:30.847;-83.0;-612.0
21:06:30.887;-96.0;-690.0
21:06:30.927;-170.0;-801.0
21:06:30.967;-209.0;-799.0
21:06:31.007;-165.0;-679.0
21:06:31.047;-30.0;-160.0
21:06:31.087;-206.0;-473.0
21:06:31.127;-323.0;-794.0
21:06:31.167;700.0;859.0
21:06:31.207;282.0;141.0
21:06:31.247;17.0;-190.0
21:06:31.287;-40.0;-95.0
21:06:31.327;62.0;248.0
21:06:31.367;246.0;844.0
21:06:31.407;397.0;1636.0
21:06:31.447;174.0;1154.0
21:06:31.487;-165.0;133.0
21:06:31.527;-363.0;-471.0
21:06:31.567;-420.0;-669.0
21:06:31.592;-422.0;-717.0
21:06:31.632;-488.0;-837.0
21:06:31.672;-480.0;-866.0
21:06:31.712;-466.0;-874.0
21:06:31.752;-385.0;-731.0
21:06:31.792;-181.0;-238.0
21:06:31.832;-299.0;-463.0
21:06:31.872;-376.0;-698.0
21:06:31.912;582.0;128.0
21:06:31.952;177.0;-94.0
21:06:31.992;-40.0;-144.0
21:06:32.032;-52.0;45.0
21:06:32.072;-5.0;375.0
21:06:32.112;290.0;1015.0
21:06:32.152;481.0;1796.0
21:06:32.192;249.0;1509.0
21:06:32.232;-146.0;387.0
21:06:32.272;-361.0;-167.0
21:06:32.312;-372.0;-343.0
21:06:32.352;-345.0;-366.0
21:06:32.392;-301.0;-383.0
21:06:32.432;-334.0;-510.0
21:06:32.472;-303.0;-507.0
21:06:32.512;-273.0;-497.0
21:06:32.552;-248.0;-482.0
21:06:32.592;-215.0;-363.0
21:06:32.632;-44.0;138.0
21:06:32.672;-98.0;-122.0
21:06:32.712;-217.0;-440.0
21:06:32.752;677.0;255.0
21:06:32.792;198.0;-77.0
21:06:32.832;81.0;-85.0
21:06:32.872;117.0;49.0
21:06:32.912;280.0;433.0
21:06:32.952;531.0;1045.0
21:06:32.992;729.0;1761.0
21:06:33.032;484.0;1502.0
21:06:33.072;146.0;488.0
21:06:33.112;-99.0;-171.0
21:06:33.152;-118.0;-345.0
21:06:33.192;-95.0;-375.0
21:06:33.232;-136.0;-470.0
21:06:33.272;-139.0;-538.0
21:06:33.312;-158.0;-586.0
21:06:33.352;-107.0;-533.0
21:06:33.392;35.0;-200.0
21:06:33.432;188.0;162.0
21:06:33.472;22.0;-328.0
21:06:33.512;-117.0;-581.0
21:06:33.552;285.0;4821.0
21:06:33.592;232.0;1957.0
21:06:33.632;151.0;478.0
21:06:33.672;219.0;1.0
21:06:33.712;338.0;79.0
21:06:33.752;595.0;669.0
21:06:33.792;645.0;1218.0
21:06:33.832;238.0;406.0
21:06:33.872;-115.0;-460.0
21:06:33.912;-237.0;-822.0
21:06:33.952;-278.0;-928.0
21:06:33.992;-255.0;-881.0
21:06:34.032;-276.0;-941.0
21:06:34.072;-322.0;-975.0
21:06:34.112;-321.0;-949.0
21:06:34.152;-319.0;-961.0
21:06:34.192;-236.0;-815.0
21:06:34.232;-87.0;-405.0
21:06:34.272;140.0;-39.0
21:06:34.312;-111.0;-501.0
21:06:34.352;-284.0;-758.0
21:06:34.392;-437.0;5621.0
21:06:34.432;-267.0;2204.0
21:06:34.472;-132.0;486.0
21:06:34.512;15.0;-65.0
21:06:34.552;227.0;15.0
21:06:34.592;466.0;670.0
21:06:34.632;477.0;1143.0
21:06:34.672;70.0;294.0
21:06:34.712;-263.0;-608.0
21:06:34.752;-352.0;-980.0
21:06:34.792;-311.0;-992.0
21:06:34.832;-341.0;-977.0
21:06:34.872;-263.0;-904.0
21:06:34.912;-254.0;-907.0
21:06:34.952;-287.0;-861.0
21:06:34.992;-317.0;-856.0
21:06:35.032;-373.0;-796.0
21:06:35.072;-341.0;-742.0
21:06:35.112;-255.0;-505.0
21:06:35.152;-79.0;-7.0
21:06:35.192;-177.0;-252.0
21:06:35.232;-268.0;-499.0
21:06:35.272;798.0;964.0
21:06:35.312;419.0;377.0
21:06:35.352;100.0;79.0
21:06:35.392;44.0;168.0
21:06:35.432;112.0;424.0
21:06:35.472;382.0;1086.0
21:06:35.512;559.0;1843.0
21:06:35.552;367.0;1522.0
21:06:35.687;-16.0;437.0
21:06:35.727;-181.0;-45.0
21:06:35.767;-227.0;-207.0
21:06:35.807;-180.0;-271.0
21:06:35.847;-233.0;-405.0
21:06:35.887;-226.0;-431.0
21:06:35.927;-247.0;-487.0
21:06:35.967;-228.0;-469.0
21:06:36.007;-250.0;-458.0
21:06:36.047;4.0;76.0
21:06:36.087;27.0;101.0
21:06:36.127;-82.0;-213.0
21:06:36.167;185.0;-794.0
21:06:36.207;-576.0;353.0
21:06:36.247;-110.0;356.0
21:06:36.287;197.0;459.0
21:06:36.327;422.0;699.0
21:06:36.367;655.0;1124.0
21:06:36.407;959.0;1858.0
21:06:36.447;865.0;2044.0
21:06:36.487;452.0;1058.0
21:06:36.527;161.0;337.0
21:06:36.567;-23.0;17.0
21:06:36.607;-44.0;-82.0
21:06:36.647;-52.0;-177.0
21:06:36.687;-78.0;-304.0
21:06:36.727;-134.0;-331.0
21:06:36.767;-148.0;-365.0
21:06:36.807;-155.0;-345.0
21:06:36.847;-27.0;-7.0
21:06:36.887;112.0;301.0
21:06:36.927;-151.0;-248.0
21:06:36.967;-275.0;-447.0
21:06:37.007;-126.0;5586.0
21:06:37.047;-87.0;2332.0
21:06:37.087;-90.0;638.0
21:06:37.127;-19.0;29.0
21:06:37.167;196.0;143.0
21:06:37.207;421.0;698.0
21:06:37.247;503.0;1263.0
21:06:37.287;171.0;452.0
21:06:37.327;-103.0;-374.0
21:06:37.367;-229.0;-715.0
21:06:37.407;-307.0;-858.0
21:06:37.447;-298.0;-873.0
21:06:37.487;-348.0;-902.0
21:06:37.527;-368.0;-876.0
21:06:37.567;-376.0;-851.0
21:06:37.607;-416.0;-853.0
21:06:37.647;-465.0;-847.0
21:06:37.687;-482.0;-775.0
21:06:37.727;-226.0;-168.0
21:06:37.767;-61.0;68.0
21:06:37.807;-283.0;-378.0
21:06:37.847;-436.0;-705.0
21:06:37.887;-682.0;5137.0
21:06:37.927;-435.0;2038.0
21:06:37.967;-238.0;567.0
21:06:38.007;-30.0;118.0
21:06:38.047;189.0;260.0
21:06:38.087;496.0;931.0
21:06:38.127;499.0;1345.0
21:06:38.167;146.0;490.0
21:06:38.207;-146.0;-413.0
21:06:38.247;-276.0;-781.0
21:06:38.287;-292.0;-803.0
21:06:38.327;-248.0;-725.0
21:06:38.367;-276.0;-746.0
21:06:38.407;-262.0;-781.0
21:06:38.447;-251.0;-717.0
21:06:38.487;-255.0;-698.0
21:06:38.527;-230.0;-599.0
21:06:38.567;-204.0;-593.0
21:06:38.607;22.0;-73.0
21:06:38.647;203.0;167.0
21:06:38.687;27.0;-266.0
21:06:38.727;-80.0;-573.0
21:06:38.767;-291.0;4541.0
21:06:38.807;26.0;2064.0
21:06:38.847;205.0;814.0
21:06:38.887;380.0;425.0
21:06:38.927;584.0;612.0
21:06:38.967;903.0;1219.0
21:06:39.007;923.0;1611.0
21:06:39.047;524.0;686.0
21:06:39.087;234.0;-53.0
21:06:39.127;130.0;-327.0
21:06:39.167;137.0;-415.0
21:06:39.207;123.0;-423.0
21:06:39.247;77.0;-499.0
21:06:39.287;119.0;-478.0
21:06:39.327;56.0;-479.0
21:06:39.367;44.0;-452.0
21:06:39.407;226.0;94.0
21:06:39.447;250.0;-26.0
21:06:39.487;126.0;-356.0
21:06:39.527;500.0;-697.0
21:06:39.567;-386.0;-136.0
21:06:39.607;6.0;50.0
21:06:39.647;229.0;223.0
21:06:39.849;314.0;403.0
21:06:39.889;772.0;1396.0
21:06:39.929;832.0;1889.0
21:06:39.969;443.0;1032.0
21:06:40.009;81.0;228.0
21:06:40.049;-71.0;-166.0
21:06:40.089;-97.0;-295.0
21:06:40.129;-86.0;-339.0
21:06:40.169;-123.0;-417.0
21:06:40.209;-164.0;-449.0
21:06:40.249;-174.0;-481.0
21:06:40.289;-131.0;-468.0
21:06:40.329;-163.0;-486.0
21:06:40.369;-9.0;-7.0
21:06:40.409;-14.0;-76.0
21:06:40.449;-157.0;-425.0
21:06:40.489;27.0;-943.0
21:06:40.529;-722.0;147.0
21:06:40.569;-347.0;75.0
21:06:40.609;-179.0;35.0
21:06:40.649;54.0;302.0
21:06:40.689;322.0;809.0
21:06:40.729;604.0;1604.0
21:06:40.769;462.0;1761.0
21:06:40.809;37.0;652.0
21:06:40.849;-205.0;-115.0
21:06:40.889;-330.0;-406.0
21:06:40.929;-299.0;-465.0
21:06:40.969;-310.0;-544.0
21:06:41.009;-331.0;-586.0
21:06:41.049;-349.0;-618.0
21:06:41.089;-369.0;-629.0
21:06:41.129;-350.0;-584.0
21:06:41.169;-310.0;-519.0
21:06:41.209;-342.0;-499.0
21:06:41.249;-90.0;86.0
21:06:41.289;-41.0;54.0
21:06:41.329;-225.0;-300.0
21:06:41.369;6.0;-785.0
21:06:41.409;-768.0;-9.0
21:06:41.449;-392.0;115.0
21:06:41.489;-124.0;277.0
21:06:41.529;86.0;555.0
21:06:41.569;391.0;1091.0
21:06:41.609;655.0;1829.0
21:06:41.649;672.0;2118.0
21:06:41.689;283.0;1047.0
21:06:41.729;1.0;255.0
21:06:41.769;-116.0;-17.0
21:06:41.809;-106.0;-116.0
21:06:41.849;-140.0;-216.0
21:06:41.889;-50.0;-156.0
21:06:41.929;-133.0;-246.0
21:06:41.969;-183.0;-295.0
21:06:42.009;-99.0;-226.0
21:06:42.049;-58.0;-229.0
21:06:42.089;199.0;323.0
21:06:42.129;312.0;309.0
21:06:42.169;188.0;3.0
21:06:42.209;276.0;-547.0
21:06:42.249;-319.0;1143.0
21:06:42.289;14.0;738.0
21:06:42.329;232.0;601.0
21:06:42.369;453.0;811.0
21:06:42.409;712.0;1272.0
21:06:42.449;942.0;1860.0
21:06:42.489;822.0;1989.0
21:06:42.529;399.0;983.0
21:06:42.569;58.0;268.0
21:06:42.609;10.0;70.0
21:06:42.649;-51.0;-71.0
21:06:42.689;-18.0;-106.0
21:06:42.729;-38.0;-221.0
21:06:42.769;-114.0;-312.0
21:06:42.809;-97.0;-266.0
21:06:42.849;65.0;76.0
21:06:42.889;174.0;518.0
21:06:42.929;-18.0;5.0
21:06:42.969;-74.0;-273.0
21:06:43.009;564.0;4332.0
21:06:43.049;379.0;1966.0
21:06:43.089;262.0;718.0
21:06:43.129;290.0;335.0
21:06:43.169;377.0;437.0
21:06:43.209;661.0;1072.0
21:06:43.249;779.0;1696.0
21:06:43.289;376.0;972.0
21:06:43.329;15.0;69.0
21:06:43.369;-190.0;-385.0
21:06:43.409;-271.0;-552.0
21:06:43.449;-307.0;-598.0
21:06:43.489;-309.0;-611.0
21:06:43.529;-353.0;-686.0
21:06:43.569;-335.0;-651.0
21:06:43.609;-403.0;-677.0
21:06:43.649;-278.0;-294.0
21:06:43.689;-96.0;57.0
21:06:43.729;-280.0;-464.0
21:06:43.769;-350.0;-670.0
21:06:43.809;-155.0;5461.0
21:06:44.328;-137.0;2184.0
21:06:44.368;-60.0;632.0
21:06:44.408;158.0;176.0
21:06:44.448;459.0;508.0
21:06:44.488;620.0;1115.0
21:06:44.528;329.0;490.0
21:06:44.568;-94.0;-653.0
21:06:44.608;-348.0;-1284.0
21:06:44.648;-319.0;-1462.0
21:06:44.688;-289.0;-1513.0
21:06:44.728;-249.0;-1609.0
21:06:44.768;-256.0;-1696.0
21:06:44.808;-280.0;-1740.0
21:06:44.848;-262.0;-1703.0
21:06:44.888;-191.0;-1640.0
21:06:44.928;-266.0;-1631.0
21:06:44.968;-59.0;-1177.0
21:06:45.008;-209.0;-1516.0
21:06:45.048;-293.0;-1800.0
21:06:45.088;500.0;-1292.0
21:06:45.128;-14.0;-1543.0
21:06:45.168;-70.0;-1432.0
21:06:45.208;-37.0;-1202.0
21:06:45.248;122.0;-793.0
21:06:45.288;409.0;-91.0
21:06:45.328;590.0;702.0
21:06:45.368;443.0;609.0
21:06:45.408;46.0;-407.0
21:06:45.448;-53.0;-983.0
21:06:45.488;-144.0;-1197.0
21:06:45.528;-92.0;-1160.0
21:06:45.568;-135.0;-1236.0
21:06:45.608;-95.0;-1221.0
21:06:45.648;-81.0;-1197.0
21:06:45.688;-38.0;-1154.0
21:06:45.728;-131.0;-1181.0
21:06:45.768;10.0;-687.0
21:06:45.808;94.0;-697.0
21:06:45.848;-85.0;-1061.0
21:06:45.888;159.0;-1499.0
21:06:45.928;-640.0;-551.0
21:06:45.968;-183.0;-382.0
21:06:46.008;48.0;-261.0
21:06:46.048;268.0;82.0
21:06:46.088;523.0;582.0
21:06:46.128;753.0;1287.0
21:06:46.168;716.0;1376.0
21:06:46.208;271.0;469.0
21:06:46.248;-6.0;-167.0
21:06:46.288;-78.0;-315.0
21:06:46.328;-56.0;-378.0
21:06:46.368;-120.0;-461.0
21:06:46.408;-211.0;-556.0
21:06:46.448;-261.0;-589.0
21:06:46.488;-226.0;-510.0
21:06:46.528;-39.0;-208.0
21:06:46.568;-17.0;244.0
21:06:46.608;-202.0;-186.0
21:06:46.648;-298.0;-469.0
21:06:46.688;714.0;2541.0
21:06:46.728;349.0;1127.0
21:06:46.768;98.0;468.0
21:06:46.808;4.0;328.0
21:06:46.848;128.0;591.0
21:06:46.888;371.0;1253.0
21:06:46.928;527.0;1908.0
21:06:46.968;206.0;1298.0
21:06:47.008;-164.0;261.0
21:06:47.048;-381.0;-243.0
21:06:47.088;-453.0;-406.0
21:06:47.128;-432.0;-440.0
21:06:47.168;-396.0;-498.0
21:06:47.208;-390.0;-545.0
21:06:47.248;-387.0;-520.0
21:06:47.288;-409.0;-462.0
21:06:47.328;-441.0;-459.0
21:06:47.368;-369.0;-241.0
21:06:47.408;-208.0;181.0
21:06:47.448;-324.0;-206.0
21:06:47.488;-361.0;-465.0
21:06:47.528;635.0;3087.0
21:06:47.568;238.0;1392.0
21:06:47.608;-24.0;490.0
21:06:47.648;-64.0;278.0
21:06:47.688;58.0;467.0
21:06:47.728;258.0;1060.0
21:06:47.768;382.0;1798.0
21:06:47.808;108.0;1241.0
21:06:47.848;-266.0;197.0
21:06:47.888;-396.0;-315.0
21:06:47.928;-402.0;-522.0
21:06:47.968;-330.0;-526.0
21:06:48.008;-321.0;-581.0
21:06:48.048;-355.0;-619.0
21:06:48.088;-373.0;-635.0
21:06:48.128;-315.0;-575.0
21:06:48.168;-352.0;-568.0
21:06:48.208;-366.0;-532.0
21:06:48.248;-119.0;19.0
21:06:48.288;-35.0;26.0
21:06:48.348;-226.0;-306.0
21:06:48.388;-447.0;5106.0
21:06:48.428;-162.0;2201.0
21:06:48.468;-61.0;738.0
21:06:48.508;182.0;394.0
21:06:48.548;407.0;450.0
21:06:48.588;694.0;1049.0
21:06:48.628;754.0;1524.0
21:06:48.668;345.0;634.0
21:06:48.708;69.0;-95.0
21:06:48.748;-9.0;-367.0
21:06:48.788;-46.0;-482.0
21:06:48.828;-16.0;-498.0
21:06:48.868;-59.0;-560.0
21:06:48.908;-110.0;-593.0
21:06:48.948;-137.0;-587.0
21:06:48.988;-73.0;-528.0
21:06:49.028;130.0;18.0
21:06:49.068;110.0;-123.0
21:06:49.108;-38.0;-433.0
21:06:49.148;439.0;-636.0
21:06:49.188;-520.0;-290.0
21:06:49.228;-196.0;-39.0
21:06:49.268;51.0;220.0
21:06:49.308;270.0;546.0
21:06:49.348;550.0;1128.0
21:06:49.388;751.0;1836.0
21:06:49.428;592.0;1840.0
21:06:49.468;168.0;776.0
21:06:49.508;-63.0;122.0
21:06:49.548;-168.0;-183.0
21:06:49.588;-109.0;-212.0
21:06:49.628;-142.0;-361.0
21:06:49.668;-176.0;-435.0
21:06:49.708;-240.0;-502.0
21:06:49.748;-222.0;-452.0
21:06:49.788;-260.0;-453.0
21:06:49.828;-140.0;-159.0
21:06:49.868;-38.0;298.0
21:06:49.908;-247.0;-167.0
21:06:49.948;-327.0;-397.0
21:06:49.988;528.0;3377.0
21:06:50.028;192.0;1480.0
21:06:50.068;15.0;504.0
21:06:50.108;11.0;244.0
21:06:50.148;166.0;429.0
21:06:50.188;425.0;1054.0
21:06:50.228;608.0;1777.0
21:06:50.268;304.0;1152.0
21:06:50.308;-29.0;224.0
21:06:50.348;-215.0;-264.0
21:06:50.388;-258.0;-489.0
21:06:50.428;-284.0;-541.0
21:06:50.468;-313.0;-580.0
21:06:50.508;-343.0;-625.0
21:06:50.548;-349.0;-670.0
21:06:50.588;-352.0;-616.0
21:06:50.628;-313.0;-587.0
21:06:50.668;-223.0;-425.0
21:06:50.708;-92.0;84.0
21:06:50.748;-207.0;-253.0
21:06:50.788;-335.0;-490.0
21:06:50.828;610.0;1663.0
21:06:50.868;304.0;720.0
21:06:50.908;24.0;222.0
21:06:50.948;-38.0;227.0
21:06:50.988;204.0;579.0
21:06:51.028;470.0;1171.0
21:06:51.068;629.0;1811.0
21:06:51.108;375.0;1422.0
21:06:51.148;43.0;439.0
21:06:51.188;-108.0;-61.0
21:06:51.228;-63.0;-139.0
21:06:51.268;9.0;-46.0
21:06:51.308;-18.0;-131.0
21:06:51.348;-53.0;-201.0
21:06:51.388;-88.0;-271.0
21:06:51.428;-150.0;-379.0
21:06:51.468;-61.0;-96.0
21:06:51.508;-19.0;184.0
21:06:51.548;-327.0;-333.0
21:06:51.588;-383.0;-718.0
21:06:51.628;88.0;4447.0
21:06:51.668;-140.0;1714.0
21:06:51.708;-229.0;302.0
21:06:51.748;-102.0;-55.0
21:06:51.788;-5.0;-27.0
