Time;Ecg 1;Ecg 2
'[15:50:00.000]';-0.59;0.145
'[15:50:00.004]';-0.59;0.155
'[15:50:00.008]';-0.59;0.155
'[15:50:00.012]';-0.565;0.16
'[15:50:00.016]';-0.575;0.175
'[15:50:00.020]';-0.575;0.155
'[15:50:00.024]';-0.575;0.175
'[15:50:00.028]';-0.585;0.155
'[15:50:00.032]';-0.565;0.17
'[15:50:00.036]';-0.57;0.155
'[15:50:00.040]';-0.575;0.15
'[15:50:00.044]';-0.57;0.15
'[15:50:00.048]';-0.585;0.145
'[15:50:00.052]';-0.59;0.145
'[15:50:00.056]';-0.565;0.15
'[15:50:00.060]';-0.53;0.145
'[15:50:00.064]';-0.465;0.135
'[15:50:00.068]';-0.38;0.13
'[15:50:00.072]';-0.27;0.155
'[15:50:00.076]';-0.245;0.19
'[15:50:00.080]';-0.35;0.245
'[15:50:00.084]';-0.535;0.315
'[15:50:00.088]';-0.745;0.315
'[15:50:00.092]';-1.125;0.035
'[15:50:00.096]';-1.515;-0.56
'[15:50:00.100]';-1.845;-1.23
'[15:50:00.104]';-2.145;-2.07
'[15:50:00.108]';-2.205;-3
'[15:50:00.112]';-2.13;-3.8
'[15:50:00.116]';-2;-4.36
'[15:50:00.120]';-1.985;-4.7
'[15:50:00.124]';-2.05;-4.945
'[15:50:00.128]';-2.055;-5.065
'[15:50:00.132]';-2.035;-5.11
'[15:50:00.136]';-2;-5.095
'[15:50:00.140]';-2.01;-5
'[15:50:00.144]';-2;-4.865
'[15:50:00.148]';-1.965;-4.755
'[15:50:00.152]';-1.935;-4.66
'[15:50:00.156]';-1.93;-4.515
'[15:50:00.160]';-1.815;-4.43
'[15:50:00.164]';-1.615;-4.245
'[15:50:00.168]';-1.385;-3.93
'[15:50:00.172]';-1.23;-3.62
'[15:50:00.176]';-1.13;-3.21
'[15:50:00.180]';-1.02;-2.76
'[15:50:00.184]';-0.905;-2.26
'[15:50:00.188]';-0.745;-1.75
'[15:50:00.192]';-0.585;-1.325
'[15:50:00.196]';-0.45;-0.945
'[15:50:00.200]';-0.335;-0.605
'[15:50:00.204]';-0.27;-0.335
'[15:50:00.208]';-0.22;-0.14
'[15:50:00.212]';-0.215;0.055
'[15:50:00.216]';-0.215;0.255
'[15:50:00.220]';-0.19;0.415
'[15:50:00.224]';-0.155;0.555
'[15:50:00.228]';-0.155;0.705
'[15:50:00.232]';-0.125;0.82
'[15:50:00.236]';-0.115;0.885
'[15:50:00.240]';-0.11;0.915
'[15:50:00.244]';-0.08;0.935
'[15:50:00.248]';-0.075;0.94
'[15:50:00.252]';-0.05;0.98
'[15:50:00.256]';-0.04;1.015
'[15:50:00.260]';-0.04;1.06
'[15:50:00.264]';-0.05;1.04
'[15:50:00.268]';-0.04;1.055
'[15:50:00.272]';-0.03;1.08
'[15:50:00.276]';-0.035;1.09
'[15:50:00.280]';-0.03;1.065
'[15:50:00.284]';0;1.09
'[15:50:00.288]';0;1.075
'[15:50:00.292]';0;1.085
'[15:50:00.296]';0;1.115
'[15:50:00.300]';0.015;1.14
'[15:50:00.304]';-0.005;1.15
'[15:50:00.308]';0.015;1.17
'[15:50:00.312]';0.015;1.205
'[15:50:00.316]';0.03;1.2
'[15:50:00.320]';0.035;1.195
'[15:50:00.324]';0.035;1.215
'[15:50:00.328]';0.04;1.22
'[15:50:00.332]';0.03;1.245
'[15:50:00.336]';0.055;1.265
'[15:50:00.340]';0.09;1.275
'[15:50:00.344]';0.085;1.325
'[15:50:00.348]';0.1;1.315
'[15:50:00.352]';0.11;1.345
'[15:50:00.356]';0.105;1.395
'[15:50:00.360]';0.12;1.39
'[15:50:00.364]';0.115;1.43
'[15:50:00.368]';0.12;1.455
'[15:50:00.372]';0.145;1.445
'[15:50:00.376]';0.16;1.46
'[15:50:00.380]';0.165;1.48
'[15:50:00.384]';0.15;1.485
'[15:50:00.388]';0.155;1.515
'[15:50:00.392]';0.16;1.535
'[15:50:00.396]';0.16;1.535
'[15:50:00.400]';0.145;1.535
'[15:50:00.404]';0.135;1.55
'[15:50:00.408]';0.12;1.57
'[15:50:00.412]';0.105;1.565
'[15:50:00.416]';0.105;1.535
'[15:50:00.420]';0.09;1.54
'[15:50:00.424]';0.08;1.495
'[15:50:00.428]';0.03;1.475
'[15:50:00.432]';0.01;1.435
'[15:50:00.436]';-0.01;1.425
'[15:50:00.440]';-0.045;1.38
'[15:50:00.444]';-0.105;1.335
'[15:50:00.448]';-0.14;1.3
'[15:50:00.452]';-0.175;1.24
'[15:50:00.456]';-0.225;1.16
'[15:50:00.460]';-0.245;1.09
'[15:50:00.464]';-0.255;1.04
'[15:50:00.468]';-0.29;0.97
'[15:50:00.472]';-0.31;0.91
'[15:50:00.476]';-0.315;0.835
'[15:50:00.480]';-0.335;0.79
'[15:50:00.484]';-0.36;0.71
'[15:50:00.488]';-0.38;0.665
'[15:50:00.492]';-0.4;0.64
'[15:50:00.496]';-0.435;0.58
'[15:50:00.500]';-0.43;0.525
'[15:50:00.504]';-0.445;0.505
'[15:50:00.508]';-0.455;0.465
'[15:50:00.512]';-0.46;0.405
'[15:50:00.516]';-0.46;0.39
'[15:50:00.520]';-0.44;0.36
'[15:50:00.524]';-0.45;0.355
'[15:50:00.528]';-0.45;0.325
'[15:50:00.532]';-0.47;0.31
'[15:50:00.536]';-0.455;0.32
'[15:50:00.540]';-0.47;0.315
'[15:50:00.544]';-0.485;0.3
'[15:50:00.548]';-0.46;0.31
'[15:50:00.552]';-0.475;0.315
'[15:50:00.556]';-0.455;0.335
'[15:50:00.560]';-0.455;0.315
'[15:50:00.564]';-0.445;0.32
'[15:50:00.568]';-0.43;0.32
'[15:50:00.572]';-0.43;0.33
'[15:50:00.576]';-0.43;0.31
'[15:50:00.580]';-0.42;0.315
'[15:50:00.584]';-0.435;0.335
'[15:50:00.588]';-0.42;0.34
'[15:50:00.592]';-0.445;0.36
'[15:50:00.596]';-0.43;0.345
'[15:50:00.600]';-0.435;0.335
'[15:50:00.604]';-0.425;0.34
'[15:50:00.608]';-0.41;0.35
'[15:50:00.612]';-0.415;0.35
'[15:50:00.616]';-0.4;0.365
'[15:50:00.620]';-0.405;0.345
'[15:50:00.624]';-0.385;0.355
'[15:50:00.628]';-0.4;0.355
'[15:50:00.632]';-0.385;0.355
'[15:50:00.636]';-0.395;0.345
'[15:50:00.640]';-0.41;0.365
'[15:50:00.644]';-0.415;0.335
'[15:50:00.648]';-0.415;0.37
'[15:50:00.652]';-0.4;0.335
'[15:50:00.656]';-0.405;0.325
'[15:50:00.660]';-0.395;0.325
'[15:50:00.664]';-0.405;0.325
'[15:50:00.668]';-0.4;0.31
'[15:50:00.672]';-0.405;0.335
'[15:50:00.676]';-0.41;0.295
'[15:50:00.680]';-0.425;0.31
'[15:50:00.684]';-0.435;0.325
'[15:50:00.688]';-0.42;0.3
'[15:50:00.692]';-0.435;0.295
'[15:50:00.696]';-0.43;0.28
'[15:50:00.700]';-0.41;0.285
'[15:50:00.704]';-0.41;0.275
'[15:50:00.708]';-0.41;0.285
'[15:50:00.712]';-0.42;0.27
'[15:50:00.716]';-0.415;0.28
'[15:50:00.720]';-0.435;0.28
'[15:50:00.724]';-0.43;0.255
'[15:50:00.728]';-0.445;0.26
'[15:50:00.732]';-0.435;0.235
'[15:50:00.736]';-0.45;0.22
'[15:50:00.740]';-0.44;0.225
'[15:50:00.744]';-0.435;0.215
'[15:50:00.748]';-0.44;0.195
'[15:50:00.752]';-0.4;0.2
'[15:50:00.756]';-0.435;0.215
'[15:50:00.760]';-0.425;0.205
'[15:50:00.764]';-0.44;0.22
'[15:50:00.768]';-0.42;0.215
'[15:50:00.772]';-0.46;0.195
'[15:50:00.776]';-0.44;0.205
'[15:50:00.780]';-0.435;0.205
'[15:50:00.784]';-0.455;0.15
'[15:50:00.788]';-0.46;0.16
'[15:50:00.792]';-0.445;0.155
'[15:50:00.796]';-0.43;0.18
'[15:50:00.800]';-0.425;0.155
'[15:50:00.804]';-0.415;0.15
'[15:50:00.808]';-0.4;0.16
'[15:50:00.812]';-0.42;0.17
'[15:50:00.816]';-0.39;0.185
'[15:50:00.820]';-0.435;0.18
'[15:50:00.824]';-0.43;0.18
'[15:50:00.828]';-0.43;0.165
'[15:50:00.832]';-0.42;0.175
'[15:50:00.836]';-0.41;0.14
'[15:50:00.840]';-0.405;0.125
'[15:50:00.844]';-0.4;0.14
'[15:50:00.848]';-0.415;0.14
'[15:50:00.852]';-0.4;0.16
'[15:50:00.856]';-0.405;0.15
'[15:50:00.860]';-0.4;0.165
'[15:50:00.864]';-0.39;0.15
'[15:50:00.868]';-0.37;0.17
'[15:50:00.872]';-0.335;0.15
'[15:50:00.876]';-0.295;0.165
'[15:50:00.880]';-0.24;0.205
'[15:50:00.884]';-0.2;0.195
'[15:50:00.888]';-0.18;0.24
'[15:50:00.892]';-0.165;0.295
'[15:50:00.896]';-0.19;0.3
'[15:50:00.900]';-0.23;0.335
'[15:50:00.904]';-0.275;0.305
'[15:50:00.908]';-0.28;0.33
'[15:50:00.912]';-0.3;0.3
'[15:50:00.916]';-0.305;0.23
'[15:50:00.920]';-0.33;0.22
'[15:50:00.924]';-0.335;0.17
'[15:50:00.928]';-0.31;0.165
'[15:50:00.932]';-0.27;0.115
'[15:50:00.936]';-0.245;0.095
'[15:50:00.940]';-0.205;0.095
'[15:50:00.944]';-0.215;0.115
'[15:50:00.948]';-0.225;0.14
'[15:50:00.952]';-0.25;0.185
'[15:50:00.956]';-0.305;0.18
'[15:50:00.960]';-0.34;0.21
'[15:50:00.964]';-0.415;0.22
'[15:50:00.968]';-0.43;0.22
'[15:50:00.972]';-0.45;0.17
'[15:50:00.976]';-0.425;0.145
'[15:50:00.980]';-0.42;0.12
'[15:50:00.984]';-0.42;0.1
'[15:50:00.988]';-0.415;0.12
'[15:50:00.992]';-0.425;0.145
'[15:50:00.996]';-0.425;0.135
'[15:50:01.000]';-0.44;0.13
'[15:50:01.004]';-0.465;0.135
'[15:50:01.008]';-0.445;0.13
'[15:50:01.012]';-0.45;0.115
'[15:50:01.016]';-0.43;0.13
'[15:50:01.020]';-0.435;0.12
'[15:50:01.024]';-0.43;0.11
'[15:50:01.028]';-0.43;0.12
'[15:50:01.032]';-0.445;0.12
'[15:50:01.036]';-0.445;0.12
'[15:50:01.040]';-0.44;0.125
'[15:50:01.044]';-0.465;0.12
'[15:50:01.048]';-0.46;0.105
'[15:50:01.052]';-0.455;0.1
'[15:50:01.056]';-0.465;0.095
'[15:50:01.060]';-0.455;0.1
'[15:50:01.064]';-0.415;0.11
'[15:50:01.068]';-0.375;0.105
'[15:50:01.072]';-0.255;0.095
'[15:50:01.076]';-0.12;0.08
'[15:50:01.080]';-0.08;0.13
'[15:50:01.084]';-0.16;0.2
'[15:50:01.088]';-0.33;0.265
'[15:50:01.092]';-0.6;0.33
'[15:50:01.096]';-1;0.105
'[15:50:01.100]';-1.435;-0.425
'[15:50:01.104]';-1.79;-1.105
'[15:50:01.108]';-2.13;-1.935
'[15:50:01.112]';-2.26;-2.855
'[15:50:01.116]';-2.225;-3.71
'[15:50:01.120]';-2.1;-4.31
'[15:50:01.124]';-2.01;-4.69
'[15:50:01.128]';-2.025;-4.925
'[15:50:01.132]';-2.05;-5.05
'[15:50:01.136]';-2.045;-5.13
'[15:50:01.140]';-2.07;-5.125
'[15:50:01.144]';-2.095;-5.045
'[15:50:01.148]';-2.1;-4.945
'[15:50:01.152]';-2.06;-4.825
'[15:50:01.156]';-2.02;-4.745
'[15:50:01.160]';-2.045;-4.65
'[15:50:01.164]';-1.95;-4.525
'[15:50:01.168]';-1.74;-4.38
'[15:50:01.172]';-1.48;-4.105
'[15:50:01.176]';-1.27;-3.77
'[15:50:01.180]';-1.115;-3.375
'[15:50:01.184]';-0.97;-2.895
'[15:50:01.188]';-0.85;-2.405
'[15:50:01.192]';-0.66;-1.875
'[15:50:01.196]';-0.455;-1.385
'[15:50:01.200]';-0.325;-0.98
'[15:50:01.204]';-0.195;-0.665
'[15:50:01.208]';-0.11;-0.39
'[15:50:01.212]';-0.09;-0.17
'[15:50:01.216]';-0.06;0.04
'[15:50:01.220]';-0.035;0.22
'[15:50:01.224]';-0.035;0.385
'[15:50:01.228]';-0.015;0.545
'[15:50:01.232]';0.005;0.665
'[15:50:01.236]';0.025;0.77
'[15:50:01.240]';0.02;0.84
'[15:50:01.244]';0.045;0.86
'[15:50:01.248]';0.045;0.895
'[15:50:01.252]';0.08;0.915
'[15:50:01.256]';0.09;0.925
'[15:50:01.260]';0.13;0.975
'[15:50:01.264]';0.115;1.005
'[15:50:01.268]';0.135;0.965
'[15:50:01.272]';0.13;0.99
'[15:50:01.276]';0.155;0.99
'[15:50:01.280]';0.165;0.99
'[15:50:01.284]';0.17;1.005
'[15:50:01.288]';0.175;1.015
'[15:50:01.292]';0.205;1.03
'[15:50:01.296]';0.22;1.075
'[15:50:01.300]';0.225;1.09
'[15:50:01.304]';0.235;1.1
'[15:50:01.308]';0.26;1.125
'[15:50:01.312]';0.265;1.15
'[15:50:01.316]';0.275;1.155
'[15:50:01.320]';0.3;1.185
'[15:50:01.324]';0.305;1.19
'[15:50:01.328]';0.315;1.225
'[15:50:01.332]';0.34;1.255
'[15:50:01.336]';0.365;1.28
'[15:50:01.340]';0.36;1.31
'[15:50:01.344]';0.365;1.345
'[15:50:01.348]';0.365;1.38
'[15:50:01.352]';0.365;1.39
'[15:50:01.356]';0.37;1.405
'[15:50:01.360]';0.375;1.445
'[15:50:01.364]';0.395;1.47
'[15:50:01.368]';0.4;1.51
'[15:50:01.372]';0.39;1.54
'[15:50:01.376]';0.405;1.525
'[15:50:01.380]';0.425;1.56
'[15:50:01.384]';0.425;1.61
'[15:50:01.388]';0.405;1.605
'[15:50:01.392]';0.4;1.605
'[15:50:01.396]';0.375;1.635
'[15:50:01.400]';0.355;1.65
'[15:50:01.404]';0.345;1.645
'[15:50:01.408]';0.305;1.615
'[15:50:01.412]';0.27;1.585
'[15:50:01.416]';0.24;1.55
'[15:50:01.420]';0.215;1.52
'[15:50:01.424]';0.185;1.495
'[15:50:01.428]';0.155;1.45
'[15:50:01.432]';0.085;1.385
'[15:50:01.436]';0.03;1.335
'[15:50:01.440]';0.005;1.28
'[15:50:01.444]';-0.055;1.205
'[15:50:01.448]';-0.08;1.125
'[15:50:01.452]';-0.11;1.06
'[15:50:01.456]';-0.15;0.98
'[15:50:01.460]';-0.19;0.905
'[15:50:01.464]';-0.21;0.855
'[15:50:01.468]';-0.215;0.76
'[15:50:01.472]';-0.23;0.72
'[15:50:01.476]';-0.25;0.64
'[15:50:01.480]';-0.265;0.63
'[15:50:01.484]';-0.285;0.575
'[15:50:01.488]';-0.285;0.5
'[15:50:01.492]';-0.3;0.455
'[15:50:01.496]';-0.315;0.44
'[15:50:01.500]';-0.345;0.385
'[15:50:01.504]';-0.34;0.39
'[15:50:01.508]';-0.34;0.34
'[15:50:01.512]';-0.34;0.32
'[15:50:01.516]';-0.31;0.305
'[15:50:01.520]';-0.33;0.325
'[15:50:01.524]';-0.305;0.315
'[15:50:01.528]';-0.3;0.335
'[15:50:01.532]';-0.305;0.33
'[15:50:01.536]';-0.33;0.31
'[15:50:01.540]';-0.325;0.31
'[15:50:01.544]';-0.315;0.3
'[15:50:01.548]';-0.32;0.275
'[15:50:01.552]';-0.3;0.295
'[15:50:01.556]';-0.29;0.29
'[15:50:01.560]';-0.29;0.305
'[15:50:01.564]';-0.275;0.3
'[15:50:01.568]';-0.295;0.31
'[15:50:01.572]';-0.295;0.335
'[15:50:01.576]';-0.285;0.335
'[15:50:01.580]';-0.295;0.325
'[15:50:01.584]';-0.29;0.315
'[15:50:01.588]';-0.275;0.315
'[15:50:01.592]';-0.28;0.325
'[15:50:01.596]';-0.265;0.295
'[15:50:01.600]';-0.24;0.295
'[15:50:01.604]';-0.265;0.295
'[15:50:01.608]';-0.27;0.285
'[15:50:01.612]';-0.24;0.305
'[15:50:01.616]';-0.26;0.31
'[15:50:01.620]';-0.27;0.305
'[15:50:01.624]';-0.265;0.3
'[15:50:01.628]';-0.255;0.275
'[15:50:01.632]';-0.25;0.27
'[15:50:01.636]';-0.265;0.3
'[15:50:01.640]';-0.255;0.29
'[15:50:01.644]';-0.22;0.27
'[15:50:01.648]';-0.23;0.27
'[15:50:01.652]';-0.23;0.29
'[15:50:01.656]';-0.23;0.265
'[15:50:01.660]';-0.225;0.26
'[15:50:01.664]';-0.26;0.265
'[15:50:01.668]';-0.265;0.275
'[15:50:01.672]';-0.245;0.255
'[15:50:01.676]';-0.255;0.23
'[15:50:01.680]';-0.265;0.215
'[15:50:01.684]';-0.23;0.225
'[15:50:01.688]';-0.22;0.195
'[15:50:01.692]';-0.22;0.2
'[15:50:01.696]';-0.23;0.195
'[15:50:01.700]';-0.22;0.19
'[15:50:01.704]';-0.225;0.195
'[15:50:01.708]';-0.22;0.18
'[15:50:01.712]';-0.215;0.195
'[15:50:01.716]';-0.225;0.185
'[15:50:01.720]';-0.215;0.17
'[15:50:01.724]';-0.22;0.175
'[15:50:01.728]';-0.205;0.165
'[15:50:01.732]';-0.215;0.17
'[15:50:01.736]';-0.21;0.17
'[15:50:01.740]';-0.21;0.18
'[15:50:01.744]';-0.21;0.15
'[15:50:01.748]';-0.21;0.15
'[15:50:01.752]';-0.215;0.145
'[15:50:01.756]';-0.235;0.15
'[15:50:01.760]';-0.225;0.155
'[15:50:01.764]';-0.255;0.15
'[15:50:01.768]';-0.24;0.125
'[15:50:01.772]';-0.225;0.105
'[15:50:01.776]';-0.225;0.12
'[15:50:01.780]';-0.21;0.135
'[15:50:01.784]';-0.19;0.155
'[15:50:01.788]';-0.2;0.145
'[15:50:01.792]';-0.19;0.15
'[15:50:01.796]';-0.215;0.15
'[15:50:01.800]';-0.22;0.15
'[15:50:01.804]';-0.205;0.17
'[15:50:01.808]';-0.2;0.17
'[15:50:01.812]';-0.21;0.14
'[15:50:01.816]';-0.205;0.13
'[15:50:01.820]';-0.195;0.11
'[15:50:01.824]';-0.19;0.11
'[15:50:01.828]';-0.185;0.115
'[15:50:01.832]';-0.19;0.13
'[15:50:01.836]';-0.18;0.115
'[15:50:01.840]';-0.145;0.135
'[15:50:01.844]';-0.125;0.125
'[15:50:01.848]';-0.07;0.14
'[15:50:01.852]';-0.03;0.14
'[15:50:01.856]';-0.005;0.165
'[15:50:01.860]';0.01;0.19
'[15:50:01.864]';0.03;0.23
'[15:50:01.868]';-0.005;0.255
'[15:50:01.872]';-0.01;0.28
'[15:50:01.876]';-0.05;0.3
'[15:50:01.880]';-0.055;0.3
'[15:50:01.884]';-0.07;0.255
'[15:50:01.888]';-0.11;0.205
'[15:50:01.892]';-0.12;0.165
'[15:50:01.896]';-0.125;0.125
'[15:50:01.900]';-0.115;0.085
'[15:50:01.904]';-0.05;0.055
'[15:50:01.908]';-0.03;0.05
'[15:50:01.912]';-0.015;0.055
'[15:50:01.916]';-0.015;0.06
'[15:50:01.920]';-0.035;0.105
'[15:50:01.924]';-0.09;0.14
'[15:50:01.928]';-0.15;0.17
'[15:50:01.932]';-0.22;0.19
'[15:50:01.936]';-0.265;0.165
'[15:50:01.940]';-0.27;0.15
'[15:50:01.944]';-0.28;0.11
'[15:50:01.948]';-0.29;0.08
'[15:50:01.952]';-0.285;0.075
'[15:50:01.956]';-0.27;0.07
'[15:50:01.960]';-0.275;0.075
'[15:50:01.964]';-0.275;0.06
'[15:50:01.968]';-0.28;0.07
'[15:50:01.972]';-0.31;0.075
'[15:50:01.976]';-0.315;0.075
'[15:50:01.980]';-0.33;0.06
'[15:50:01.984]';-0.325;0.05
'[15:50:01.988]';-0.325;0.07
'[15:50:01.992]';-0.31;0.055
'[15:50:01.996]';-0.305;0.045
'[15:50:02.000]';-0.31;0.04
'[15:50:02.004]';-0.3;0.04
'[15:50:02.008]';-0.29;0.045
'[15:50:02.012]';-0.31;0.05
'[15:50:02.016]';-0.315;0.075
'[15:50:02.020]';-0.34;0.055
'[15:50:02.024]';-0.315;0.065
'[15:50:02.028]';-0.3;0.055
'[15:50:02.032]';-0.27;0.05
'[15:50:02.036]';-0.21;0.01
'[15:50:02.040]';-0.08;0.035
'[15:50:02.044]';0.02;0.035
'[15:50:02.048]';0.01;0.1
'[15:50:02.052]';-0.13;0.15
'[15:50:02.056]';-0.365;0.26
'[15:50:02.060]';-0.725;0.165
'[15:50:02.064]';-1.195;-0.27
'[15:50:02.068]';-1.595;-0.94
'[15:50:02.072]';-1.97;-1.785
'[15:50:02.076]';-2.18;-2.705
'[15:50:02.080]';-2.145;-3.605
'[15:50:02.084]';-2.02;-4.295
'[15:50:02.088]';-1.945;-4.7
'[15:50:02.092]';-1.94;-4.95
'[15:50:02.096]';-1.94;-5.085
'[15:50:02.100]';-1.88;-5.17
'[15:50:02.104]';-1.865;-5.165
'[15:50:02.108]';-1.875;-5.09
'[15:50:02.112]';-1.915;-4.98
'[15:50:02.116]';-1.875;-4.87
'[15:50:02.120]';-1.875;-4.78
'[15:50:02.124]';-1.87;-4.68
'[15:50:02.128]';-1.75;-4.525
'[15:50:02.132]';-1.495;-4.345
'[15:50:02.136]';-1.23;-4.025
'[15:50:02.140]';-1.045;-3.66
'[15:50:02.144]';-0.9;-3.245
'[15:50:02.148]';-0.75;-2.75
'[15:50:02.152]';-0.595;-2.195
'[15:50:02.156]';-0.41;-1.665
'[15:50:02.160]';-0.27;-1.245
'[15:50:02.164]';-0.14;-0.91
'[15:50:02.168]';-0.035;-0.64
'[15:50:02.172]';0.015;-0.38
'[15:50:02.176]';0.065;-0.16
'[15:50:02.180]';0.095;0.035
'[15:50:02.184]';0.08;0.245
'[15:50:02.188]';0.075;0.405
'[15:50:02.192]';0.11;0.535
'[15:50:02.196]';0.125;0.635
'[15:50:02.200]';0.135;0.73
'[15:50:02.204]';0.155;0.77
'[15:50:02.208]';0.16;0.775
'[15:50:02.212]';0.19;0.79
'[15:50:02.216]';0.215;0.81
'[15:50:02.220]';0.225;0.825
'[15:50:02.224]';0.225;0.87
'[15:50:02.228]';0.24;0.885
'[15:50:02.232]';0.26;0.91
'[15:50:02.236]';0.285;0.925
'[15:50:02.240]';0.265;0.945
'[15:50:02.244]';0.275;0.94
'[15:50:02.248]';0.29;0.965
'[15:50:02.252]';0.295;0.975
'[15:50:02.256]';0.31;0.98
'[15:50:02.260]';0.34;1.015
'[15:50:02.264]';0.345;1.03
'[15:50:02.268]';0.35;1.04
'[15:50:02.272]';0.355;1.035
'[15:50:02.276]';0.385;1.06
'[15:50:02.280]';0.375;1.105
'[15:50:02.284]';0.36;1.12
'[15:50:02.288]';0.35;1.16
'[15:50:02.292]';0.375;1.175
'[15:50:02.296]';0.395;1.195
'[15:50:02.300]';0.425;1.215
'[15:50:02.304]';0.445;1.235
'[15:50:02.308]';0.455;1.24
'[15:50:02.312]';0.445;1.265
'[15:50:02.316]';0.435;1.315
'[15:50:02.320]';0.45;1.335
'[15:50:02.324]';0.48;1.355
'[15:50:02.328]';0.465;1.38
'[15:50:02.332]';0.46;1.395
'[15:50:02.336]';0.475;1.4
'[15:50:02.340]';0.485;1.44
'[15:50:02.344]';0.485;1.43
'[15:50:02.348]';0.505;1.47
'[15:50:02.352]';0.495;1.485
'[15:50:02.356]';0.46;1.495
'[15:50:02.360]';0.45;1.495
'[15:50:02.364]';0.435;1.505
'[15:50:02.368]';0.38;1.52
'[15:50:02.372]';0.305;1.5
'[15:50:02.376]';0.29;1.435
'[15:50:02.380]';0.265;1.39
'[15:50:02.384]';0.255;1.38
'[15:50:02.388]';0.175;1.3
'[15:50:02.392]';0.135;1.245
'[15:50:02.396]';0.08;1.2
'[15:50:02.400]';0.075;1.135
'[15:50:02.404]';0.035;1.065
'[15:50:02.408]';0.02;1.005
'[15:50:02.412]';-0.03;0.935
'[15:50:02.416]';-0.07;0.865
'[15:50:02.420]';-0.11;0.765
'[15:50:02.424]';-0.12;0.705
'[15:50:02.428]';-0.15;0.62
'[15:50:02.432]';-0.15;0.585
'[15:50:02.436]';-0.155;0.515
'[15:50:02.440]';-0.155;0.505
'[15:50:02.444]';-0.16;0.445
'[15:50:02.448]';-0.16;0.43
'[15:50:02.452]';-0.14;0.38
'[15:50:02.456]';-0.18;0.35
'[15:50:02.460]';-0.225;0.32
'[15:50:02.464]';-0.235;0.285
'[15:50:02.468]';-0.21;0.31
'[15:50:02.472]';-0.21;0.28
'[15:50:02.476]';-0.22;0.255
'[15:50:02.480]';-0.22;0.245
'[15:50:02.484]';-0.185;0.255
'[15:50:02.488]';-0.185;0.27
'[15:50:02.492]';-0.215;0.265
'[15:50:02.496]';-0.2;0.285
'[15:50:02.500]';-0.21;0.26
'[15:50:02.504]';-0.21;0.25
'[15:50:02.508]';-0.19;0.285
'[15:50:02.512]';-0.2;0.29
'[15:50:02.516]';-0.205;0.265
'[15:50:02.520]';-0.19;0.265
'[15:50:02.524]';-0.16;0.28
'[15:50:02.528]';-0.155;0.26
'[15:50:02.532]';-0.19;0.25
'[15:50:02.536]';-0.185;0.245
'[15:50:02.540]';-0.17;0.25
'[15:50:02.544]';-0.175;0.27
'[15:50:02.548]';-0.2;0.27
'[15:50:02.552]';-0.175;0.275
'[15:50:02.556]';-0.15;0.28
'[15:50:02.560]';-0.16;0.28
'[15:50:02.564]';-0.14;0.275
'[15:50:02.568]';-0.135;0.28
'[15:50:02.572]';-0.16;0.265
'[15:50:02.576]';-0.15;0.25
'[15:50:02.580]';-0.165;0.27
'[15:50:02.584]';-0.15;0.29
'[15:50:02.588]';-0.175;0.295
'[15:50:02.592]';-0.155;0.27
'[15:50:02.596]';-0.185;0.26
'[15:50:02.600]';-0.175;0.24
'[15:50:02.604]';-0.155;0.225
'[15:50:02.608]';-0.18;0.22
'[15:50:02.612]';-0.16;0.215
'[15:50:02.616]';-0.195;0.24
'[15:50:02.620]';-0.205;0.24
'[15:50:02.624]';-0.21;0.225
'[15:50:02.628]';-0.205;0.23
'[15:50:02.632]';-0.185;0.215
'[15:50:02.636]';-0.205;0.19
'[15:50:02.640]';-0.195;0.205
'[15:50:02.644]';-0.21;0.195
'[15:50:02.648]';-0.195;0.195
'[15:50:02.652]';-0.22;0.215
'[15:50:02.656]';-0.205;0.16
'[15:50:02.660]';-0.205;0.125
'[15:50:02.664]';-0.2;0.14
'[15:50:02.668]';-0.21;0.17
'[15:50:02.672]';-0.23;0.18
'[15:50:02.676]';-0.215;0.17
'[15:50:02.680]';-0.225;0.14
'[15:50:02.684]';-0.21;0.15
'[15:50:02.688]';-0.215;0.12
'[15:50:02.692]';-0.2;0.135
'[15:50:02.696]';-0.21;0.13
'[15:50:02.700]';-0.205;0.15
'[15:50:02.704]';-0.23;0.165
'[15:50:02.708]';-0.225;0.155
'[15:50:02.712]';-0.24;0.165
'[15:50:02.716]';-0.235;0.145
'[15:50:02.720]';-0.24;0.165
'[15:50:02.724]';-0.235;0.15
'[15:50:02.728]';-0.24;0.13
'[15:50:02.732]';-0.23;0.115
'[15:50:02.736]';-0.245;0.13
'[15:50:02.740]';-0.23;0.135
'[15:50:02.744]';-0.195;0.155
'[15:50:02.748]';-0.17;0.15
'[15:50:02.752]';-0.17;0.14
'[15:50:02.756]';-0.16;0.135
'[15:50:02.760]';-0.12;0.18
'[15:50:02.764]';-0.085;0.19
'[15:50:02.768]';-0.065;0.21
'[15:50:02.772]';-0.025;0.22
'[15:50:02.776]';0;0.255
'[15:50:02.780]';0.005;0.275
'[15:50:02.784]';-0.01;0.3
'[15:50:02.788]';-0.03;0.29
'[15:50:02.792]';-0.04;0.27
'[15:50:02.796]';-0.065;0.27
'[15:50:02.800]';-0.105;0.24
'[15:50:02.804]';-0.1;0.23
'[15:50:02.808]';-0.095;0.21
'[15:50:02.812]';-0.11;0.175
'[15:50:02.816]';-0.095;0.155
'[15:50:02.820]';-0.09;0.1
'[15:50:02.824]';-0.05;0.075
'[15:50:02.828]';-0.02;0.07
'[15:50:02.832]';0;0.075
'[15:50:02.836]';-0.025;0.145
'[15:50:02.840]';-0.08;0.18
'[15:50:02.844]';-0.15;0.195
'[15:50:02.848]';-0.195;0.22
'[15:50:02.852]';-0.235;0.2
'[15:50:02.856]';-0.25;0.15
'[15:50:02.860]';-0.28;0.12
'[15:50:02.864]';-0.28;0.1
'[15:50:02.868]';-0.275;0.085
'[15:50:02.872]';-0.28;0.075
'[15:50:02.876]';-0.275;0.055
'[15:50:02.880]';-0.275;0.065
'[15:50:02.884]';-0.265;0.075
'[15:50:02.888]';-0.28;0.1
'[15:50:02.892]';-0.27;0.1
'[15:50:02.896]';-0.28;0.09
'[15:50:02.900]';-0.29;0.095
'[15:50:02.904]';-0.3;0.09
'[15:50:02.908]';-0.305;0.09
'[15:50:02.912]';-0.3;0.1
'[15:50:02.916]';-0.285;0.075
'[15:50:02.920]';-0.29;0.085
'[15:50:02.924]';-0.275;0.095
'[15:50:02.928]';-0.27;0.095
'[15:50:02.932]';-0.28;0.095
'[15:50:02.936]';-0.285;0.09
'[15:50:02.940]';-0.275;0.09
'[15:50:02.944]';-0.27;0.09
'[15:50:02.948]';-0.275;0.09
'[15:50:02.952]';-0.225;0.07
'[15:50:02.956]';-0.145;0.06
'[15:50:02.960]';-0.015;0.06
'[15:50:02.964]';0.045;0.08
'[15:50:02.968]';-0.03;0.13
'[15:50:02.972]';-0.2;0.26
'[15:50:02.976]';-0.44;0.3
'[15:50:02.980]';-0.845;0.065
'[15:50:02.984]';-1.3;-0.45
'[15:50:02.988]';-1.68;-1.09
'[15:50:02.992]';-1.99;-1.92
'[15:50:02.996]';-2.175;-2.855
'[15:50:03.000]';-2.15;-3.675
'[15:50:03.004]';-2.05;-4.27
'[15:50:03.008]';-2.035;-4.66
'[15:50:03.012]';-2.08;-4.885
'[15:50:03.016]';-2.035;-5.035
'[15:50:03.020]';-1.965;-5.095
'[15:50:03.024]';-1.945;-5.075
'[15:50:03.028]';-1.94;-4.96
'[15:50:03.032]';-1.89;-4.795
'[15:50:03.036]';-1.82;-4.695
'[15:50:03.040]';-1.81;-4.595
'[15:50:03.044]';-1.785;-4.49
'[15:50:03.048]';-1.59;-4.315
'[15:50:03.052]';-1.31;-4.105
'[15:50:03.056]';-1.07;-3.8
'[15:50:03.060]';-0.93;-3.43
'[15:50:03.064]';-0.8;-3.015
'[15:50:03.068]';-0.685;-2.51
'[15:50:03.072]';-0.54;-1.98
'[15:50:03.076]';-0.38;-1.54
'[15:50:03.080]';-0.245;-1.165
'[15:50:03.084]';-0.135;-0.8
'[15:50:03.088]';-0.035;-0.54
'[15:50:03.092]';0.005;-0.335
'[15:50:03.096]';0.055;-0.14
'[15:50:03.100]';0.075;0.025
'[15:50:03.104]';0.11;0.21
'[15:50:03.108]';0.13;0.36
'[15:50:03.112]';0.135;0.5
'[15:50:03.116]';0.17;0.605
'[15:50:03.120]';0.165;0.7
'[15:50:03.124]';0.155;0.745
'[15:50:03.128]';0.185;0.78
'[15:50:03.132]';0.2;0.815
'[15:50:03.136]';0.23;0.785
'[15:50:03.140]';0.24;0.83
'[15:50:03.144]';0.265;0.835
'[15:50:03.148]';0.275;0.855
'[15:50:03.152]';0.305;0.865
'[15:50:03.156]';0.315;0.905
'[15:50:03.160]';0.315;0.915
'[15:50:03.164]';0.325;0.925
'[15:50:03.168]';0.335;0.955
'[15:50:03.172]';0.325;0.945
'[15:50:03.176]';0.36;0.975
'[15:50:03.180]';0.35;0.98
'[15:50:03.184]';0.38;0.985
'[15:50:03.188]';0.39;1.02
'[15:50:03.192]';0.43;1.045
'[15:50:03.196]';0.42;1.08
'[15:50:03.200]';0.425;1.1
'[15:50:03.204]';0.44;1.13
'[15:50:03.208]';0.41;1.16
'[15:50:03.212]';0.42;1.175
'[15:50:03.216]';0.425;1.17
'[15:50:03.220]';0.44;1.23
'[15:50:03.224]';0.44;1.22
'[15:50:03.228]';0.435;1.245
'[15:50:03.232]';0.475;1.255
'[15:50:03.236]';0.485;1.305
'[15:50:03.240]';0.465;1.325
'[15:50:03.244]';0.475;1.345
'[15:50:03.248]';0.47;1.355
'[15:50:03.252]';0.46;1.4
'[15:50:03.256]';0.47;1.41
'[15:50:03.260]';0.495;1.415
'[15:50:03.264]';0.49;1.445
'[15:50:03.268]';0.48;1.475
'[15:50:03.272]';0.48;1.46
'[15:50:03.276]';0.47;1.475
'[15:50:03.280]';0.455;1.505
'[15:50:03.284]';0.45;1.495
'[15:50:03.288]';0.42;1.5
'[15:50:03.292]';0.41;1.515
'[15:50:03.296]';0.355;1.48
'[15:50:03.300]';0.325;1.46
'[15:50:03.304]';0.28;1.445
'[15:50:03.308]';0.25;1.4
'[15:50:03.312]';0.205;1.355
'[15:50:03.316]';0.165;1.275
'[15:50:03.320]';0.135;1.2
'[15:50:03.324]';0.09;1.14
'[15:50:03.328]';0.08;1.09
'[15:50:03.332]';0.055;1.04
'[15:50:03.336]';0.005;0.955
'[15:50:03.340]';-0.03;0.905
'[15:50:03.344]';-0.045;0.81
'[15:50:03.348]';-0.085;0.725
'[15:50:03.352]';-0.08;0.66
'[15:50:03.356]';-0.095;0.6
'[15:50:03.360]';-0.125;0.58
'[15:50:03.364]';-0.14;0.51
'[15:50:03.368]';-0.145;0.445
'[15:50:03.372]';-0.125;0.39
'[15:50:03.376]';-0.13;0.365
'[15:50:03.380]';-0.135;0.33
'[15:50:03.384]';-0.135;0.31
'[15:50:03.388]';-0.16;0.29
'[15:50:03.392]';-0.175;0.27
'[15:50:03.396]';-0.16;0.25
'[15:50:03.400]';-0.15;0.23
'[15:50:03.404]';-0.15;0.24
'[15:50:03.408]';-0.17;0.28
'[15:50:03.412]';-0.15;0.245
'[15:50:03.416]';-0.14;0.22
'[15:50:03.420]';-0.13;0.205
'[15:50:03.424]';-0.135;0.265
'[15:50:03.428]';-0.135;0.265
'[15:50:03.432]';-0.15;0.255
'[15:50:03.436]';-0.13;0.265
'[15:50:03.440]';-0.15;0.24
'[15:50:03.444]';-0.145;0.25
'[15:50:03.448]';-0.13;0.235
'[15:50:03.452]';-0.13;0.24
'[15:50:03.456]';-0.1;0.245
'[15:50:03.460]';-0.095;0.29
'[15:50:03.464]';-0.105;0.28
'[15:50:03.468]';-0.125;0.28
'[15:50:03.472]';-0.125;0.275
'[15:50:03.476]';-0.135;0.28
'[15:50:03.480]';-0.14;0.28
'[15:50:03.484]';-0.13;0.255
'[15:50:03.488]';-0.13;0.25
'[15:50:03.492]';-0.11;0.25
'[15:50:03.496]';-0.145;0.235
'[15:50:03.500]';-0.125;0.25
'[15:50:03.504]';-0.115;0.26
'[15:50:03.508]';-0.105;0.255
'[15:50:03.512]';-0.105;0.225
'[15:50:03.516]';-0.115;0.24
'[15:50:03.520]';-0.135;0.285
'[15:50:03.524]';-0.135;0.275
'[15:50:03.528]';-0.135;0.265
'[15:50:03.532]';-0.12;0.28
'[15:50:03.536]';-0.16;0.27
'[15:50:03.540]';-0.14;0.235
'[15:50:03.544]';-0.13;0.2
'[15:50:03.548]';-0.115;0.2
'[15:50:03.552]';-0.125;0.195
'[15:50:03.556]';-0.125;0.205
'[15:50:03.560]';-0.12;0.22
'[15:50:03.564]';-0.13;0.225
'[15:50:03.568]';-0.13;0.22
'[15:50:03.572]';-0.14;0.23
'[15:50:03.576]';-0.12;0.235
'[15:50:03.580]';-0.135;0.19
'[15:50:03.584]';-0.15;0.18
'[15:50:03.588]';-0.15;0.17
'[15:50:03.592]';-0.13;0.16
'[15:50:03.596]';-0.125;0.18
'[15:50:03.600]';-0.135;0.16
'[15:50:03.604]';-0.13;0.185
'[15:50:03.608]';-0.13;0.225
'[15:50:03.612]';-0.155;0.2
'[15:50:03.616]';-0.16;0.175
'[15:50:03.620]';-0.17;0.165
'[15:50:03.624]';-0.175;0.18
'[15:50:03.628]';-0.175;0.16
'[15:50:03.632]';-0.2;0.15
'[15:50:03.636]';-0.175;0.16
'[15:50:03.640]';-0.165;0.135
'[15:50:03.644]';-0.165;0.145
'[15:50:03.648]';-0.155;0.165
'[15:50:03.652]';-0.155;0.125
'[15:50:03.656]';-0.165;0.14
'[15:50:03.660]';-0.185;0.13
'[15:50:03.664]';-0.195;0.17
'[15:50:03.668]';-0.19;0.18
'[15:50:03.672]';-0.18;0.165
'[15:50:03.676]';-0.185;0.15
'[15:50:03.680]';-0.165;0.125
'[15:50:03.684]';-0.155;0.11
'[15:50:03.688]';-0.17;0.125
'[15:50:03.692]';-0.185;0.13
'[15:50:03.696]';-0.175;0.1
'[15:50:03.700]';-0.185;0.115
'[15:50:03.704]';-0.155;0.155
'[15:50:03.708]';-0.165;0.185
'[15:50:03.712]';-0.17;0.21
'[15:50:03.716]';-0.18;0.185
'[15:50:03.720]';-0.155;0.185
'[15:50:03.724]';-0.17;0.155
'[15:50:03.728]';-0.145;0.18
'[15:50:03.732]';-0.115;0.18
'[15:50:03.736]';-0.06;0.18
'[15:50:03.740]';-0.005;0.215
'[15:50:03.744]';0.025;0.22
'[15:50:03.748]';0.055;0.25
'[15:50:03.752]';0.015;0.315
'[15:50:03.756]';-0.01;0.335
'[15:50:03.760]';0;0.345
'[15:50:03.764]';-0.045;0.355
'[15:50:03.768]';-0.08;0.35
'[15:50:03.772]';-0.115;0.32
'[15:50:03.776]';-0.09;0.27
'[15:50:03.780]';-0.1;0.255
'[15:50:03.784]';-0.08;0.225
'[15:50:03.788]';-0.075;0.195
'[15:50:03.792]';-0.085;0.175
'[15:50:03.796]';-0.08;0.14
'[15:50:03.800]';-0.055;0.105
'[15:50:03.804]';-0.005;0.14
'[15:50:03.808]';0.035;0.13
'[15:50:03.812]';-0.015;0.165
'[15:50:03.816]';-0.05;0.18
'[15:50:03.820]';-0.085;0.22
'[15:50:03.824]';-0.145;0.235
'[15:50:03.828]';-0.195;0.23
'[15:50:03.832]';-0.26;0.195
'[15:50:03.836]';-0.265;0.17
'[15:50:03.840]';-0.29;0.17
'[15:50:03.844]';-0.275;0.135
'[15:50:03.848]';-0.26;0.125
'[15:50:03.852]';-0.235;0.12
'[15:50:03.856]';-0.24;0.15
'[15:50:03.860]';-0.23;0.155
'[15:50:03.864]';-0.235;0.145
'[15:50:03.868]';-0.28;0.1
'[15:50:03.872]';-0.325;0.125
'[15:50:03.876]';-0.32;0.09
'[15:50:03.880]';-0.31;0.095
'[15:50:03.884]';-0.32;0.115
'[15:50:03.888]';-0.315;0.115
'[15:50:03.892]';-0.305;0.15
'[15:50:03.896]';-0.29;0.115
'[15:50:03.900]';-0.29;0.135
'[15:50:03.904]';-0.31;0.12
'[15:50:03.908]';-0.335;0.135
'[15:50:03.912]';-0.305;0.135
'[15:50:03.916]';-0.295;0.135
'[15:50:03.920]';-0.31;0.155
'[15:50:03.924]';-0.31;0.15
'[15:50:03.928]';-0.285;0.11
'[15:50:03.932]';-0.185;0.115
'[15:50:03.936]';-0.095;0.115
'[15:50:03.940]';0.01;0.115
'[15:50:03.944]';0.01;0.11
'[15:50:03.948]';-0.125;0.16
'[15:50:03.952]';-0.32;0.275
'[15:50:03.956]';-0.58;0.31
'[15:50:03.960]';-0.965;0.05
'[15:50:03.964]';-1.37;-0.49
'[15:50:03.968]';-1.7;-1.17
'[15:50:03.972]';-1.965;-2.05
'[15:50:03.976]';-2.095;-2.95
'[15:50:03.980]';-2.075;-3.765
'[15:50:03.984]';-1.985;-4.355
'[15:50:03.988]';-1.97;-4.715
'[15:50:03.992]';-2.04;-4.93
'[15:50:03.996]';-2.11;-5.055
'[15:50:04.000]';-2.12;-5.09
'[15:50:04.004]';-2.155;-5.085
'[15:50:04.008]';-2.17;-4.995
'[15:50:04.012]';-2.145;-4.895
'[15:50:04.016]';-2.015;-4.82
'[15:50:04.020]';-1.945;-4.73
'[15:50:04.024]';-1.91;-4.66
'[15:50:04.028]';-1.81;-4.565
'[15:50:04.032]';-1.6;-4.36
'[15:50:04.036]';-1.36;-4.1
'[15:50:04.040]';-1.15;-3.785
'[15:50:04.044]';-1;-3.405
'[15:50:04.048]';-0.835;-2.855
'[15:50:04.052]';-0.695;-2.325
'[15:50:04.056]';-0.555;-1.845
'[15:50:04.060]';-0.365;-1.41
'[15:50:04.064]';-0.255;-1.05
'[15:50:04.068]';-0.155;-0.73
'[15:50:04.072]';-0.05;-0.415
'[15:50:04.076]';-0.015;-0.18
'[15:50:04.080]';0.03;0.005
'[15:50:04.084]';0.04;0.15
'[15:50:04.088]';0.08;0.3
'[15:50:04.092]';0.105;0.465
'[15:50:04.096]';0.12;0.63
'[15:50:04.100]';0.14;0.74
'[15:50:04.104]';0.155;0.78
'[15:50:04.108]';0.13;0.845
'[15:50:04.112]';0.12;0.86
'[15:50:04.116]';0.145;0.86
'[15:50:04.120]';0.175;0.92
'[15:50:04.124]';0.17;0.925
'[15:50:04.128]';0.185;0.955
'[15:50:04.132]';0.205;0.96
'[15:50:04.136]';0.185;0.99
'[15:50:04.140]';0.21;1
'[15:50:04.144]';0.215;1.03
'[15:50:04.148]';0.27;1.05
'[15:50:04.152]';0.29;1.045
'[15:50:04.156]';0.315;1.035
'[15:50:04.160]';0.315;1.045
'[15:50:04.164]';0.31;1.09
'[15:50:04.168]';0.32;1.13
'[15:50:04.172]';0.315;1.175
'[15:50:04.176]';0.32;1.175
'[15:50:04.180]';0.34;1.16
'[15:50:04.184]';0.375;1.125
'[15:50:04.188]';0.4;1.165
'[15:50:04.192]';0.42;1.22
'[15:50:04.196]';0.415;1.27
'[15:50:04.200]';0.435;1.265
'[15:50:04.204]';0.425;1.285
'[15:50:04.208]';0.43;1.31
'[15:50:04.212]';0.445;1.33
'[15:50:04.216]';0.44;1.37
'[15:50:04.220]';0.43;1.4
'[15:50:04.224]';0.415;1.43
'[15:50:04.228]';0.425;1.445
'[15:50:04.232]';0.485;1.47
'[15:50:04.236]';0.495;1.525
'[15:50:04.240]';0.49;1.535
'[15:50:04.244]';0.53;1.52
'[15:50:04.248]';0.55;1.575
'[15:50:04.252]';0.55;1.585
'[15:50:04.256]';0.51;1.605
'[15:50:04.260]';0.485;1.62
'[15:50:04.264]';0.52;1.645
'[15:50:04.268]';0.5;1.625
'[15:50:04.272]';0.49;1.615
'[15:50:04.276]';0.46;1.585
'[15:50:04.280]';0.395;1.595
'[15:50:04.284]';0.34;1.585
'[15:50:04.288]';0.28;1.545
'[15:50:04.292]';0.255;1.51
'[15:50:04.296]';0.24;1.44
'[15:50:04.300]';0.185;1.41
'[15:50:04.304]';0.145;1.375
'[15:50:04.308]';0.115;1.29
'[15:50:04.312]';0.07;1.19
'[15:50:04.316]';0.015;1.135
'[15:50:04.320]';-0.015;1.08
'[15:50:04.324]';-0.035;1
'[15:50:04.328]';-0.05;0.955
'[15:50:04.332]';-0.095;0.88
'[15:50:04.336]';-0.105;0.82
'[15:50:04.340]';-0.11;0.76
'[15:50:04.344]';-0.145;0.71
'[15:50:04.348]';-0.21;0.68
'[15:50:04.352]';-0.24;0.635
'[15:50:04.356]';-0.225;0.57
'[15:50:04.360]';-0.215;0.5
'[15:50:04.364]';-0.21;0.455
'[15:50:04.368]';-0.24;0.435
'[15:50:04.372]';-0.235;0.45
'[15:50:04.376]';-0.275;0.415
'[15:50:04.380]';-0.3;0.395
'[15:50:04.384]';-0.28;0.375
'[15:50:04.388]';-0.22;0.355
'[15:50:04.392]';-0.215;0.345
'[15:50:04.396]';-0.255;0.325
'[15:50:04.400]';-0.27;0.33
'[15:50:04.404]';-0.325;0.355
'[15:50:04.408]';-0.31;0.355
'[15:50:04.412]';-0.275;0.315
'[15:50:04.416]';-0.265;0.305
'[15:50:04.420]';-0.26;0.335
'[15:50:04.424]';-0.205;0.305
'[15:50:04.428]';-0.195;0.275
'[15:50:04.432]';-0.225;0.3
'[15:50:04.436]';-0.255;0.345
'[15:50:04.440]';-0.26;0.37
'[15:50:04.444]';-0.275;0.375
'[15:50:04.448]';-0.27;0.33
'[15:50:04.452]';-0.265;0.32
'[15:50:04.456]';-0.29;0.355
'[15:50:04.460]';-0.26;0.355
'[15:50:04.464]';-0.235;0.355
'[15:50:04.468]';-0.185;0.34
'[15:50:04.472]';-0.195;0.325
'[15:50:04.476]';-0.24;0.315
'[15:50:04.480]';-0.245;0.335
'[15:50:04.484]';-0.24;0.335
'[15:50:04.488]';-0.23;0.34
'[15:50:04.492]';-0.25;0.375
'[15:50:04.496]';-0.215;0.38
'[15:50:04.500]';-0.205;0.315
'[15:50:04.504]';-0.17;0.3
'[15:50:04.508]';-0.18;0.28
'[15:50:04.512]';-0.2;0.32
'[15:50:04.516]';-0.215;0.33
'[15:50:04.520]';-0.205;0.3
'[15:50:04.524]';-0.17;0.28
'[15:50:04.528]';-0.175;0.35
'[15:50:04.532]';-0.2;0.39
'[15:50:04.536]';-0.24;0.375
'[15:50:04.540]';-0.27;0.325
'[15:50:04.544]';-0.255;0.31
'[15:50:04.548]';-0.235;0.285
'[15:50:04.552]';-0.205;0.28
'[15:50:04.556]';-0.21;0.295
'[15:50:04.560]';-0.285;0.31
'[15:50:04.564]';-0.315;0.32
'[15:50:04.568]';-0.305;0.285
'[15:50:04.572]';-0.3;0.275
'[15:50:04.576]';-0.295;0.265
'[15:50:04.580]';-0.29;0.255
'[15:50:04.584]';-0.28;0.26
'[15:50:04.588]';-0.29;0.27
'[15:50:04.592]';-0.285;0.265
'[15:50:04.596]';-0.25;0.245
'[15:50:04.600]';-0.255;0.235
'[15:50:04.604]';-0.23;0.265
'[15:50:04.608]';-0.225;0.24
'[15:50:04.612]';-0.245;0.225
'[15:50:04.616]';-0.27;0.22
'[15:50:04.620]';-0.32;0.21
'[15:50:04.624]';-0.305;0.255
'[15:50:04.628]';-0.305;0.235
'[15:50:04.632]';-0.295;0.215
'[15:50:04.636]';-0.31;0.205
'[15:50:04.640]';-0.3;0.19
'[15:50:04.644]';-0.285;0.17
'[15:50:04.648]';-0.27;0.205
'[15:50:04.652]';-0.26;0.205
'[15:50:04.656]';-0.24;0.21
'[15:50:04.660]';-0.24;0.2
'[15:50:04.664]';-0.245;0.2
'[15:50:04.668]';-0.32;0.21
'[15:50:04.672]';-0.365;0.18
'[15:50:04.676]';-0.35;0.23
'[15:50:04.680]';-0.32;0.24
'[15:50:04.684]';-0.275;0.18
'[15:50:04.688]';-0.245;0.165
'[15:50:04.692]';-0.19;0.205
'[15:50:04.696]';-0.225;0.22
'[15:50:04.700]';-0.295;0.195
'[15:50:04.704]';-0.335;0.18
'[15:50:04.708]';-0.305;0.135
'[15:50:04.712]';-0.275;0.14
'[15:50:04.716]';-0.24;0.2
'[15:50:04.720]';-0.195;0.225
'[15:50:04.724]';-0.155;0.215
'[15:50:04.728]';-0.06;0.255
'[15:50:04.732]';-0.03;0.285
'[15:50:04.736]';-0.025;0.315
'[15:50:04.740]';-0.04;0.34
'[15:50:04.744]';-0.09;0.365
'[15:50:04.748]';-0.14;0.36
'[15:50:04.752]';-0.2;0.37
'[15:50:04.756]';-0.22;0.33
'[15:50:04.760]';-0.23;0.285
'[15:50:04.764]';-0.235;0.235
'[15:50:04.768]';-0.27;0.2
'[15:50:04.772]';-0.26;0.23
'[15:50:04.776]';-0.245;0.215
'[15:50:04.780]';-0.19;0.175
'[15:50:04.784]';-0.125;0.165
'[15:50:04.788]';-0.06;0.15
'[15:50:04.792]';-0.065;0.16
'[15:50:04.796]';-0.12;0.18
'[15:50:04.800]';-0.2;0.225
'[15:50:04.804]';-0.275;0.25
'[15:50:04.808]';-0.335;0.31
'[15:50:04.812]';-0.4;0.28
'[15:50:04.816]';-0.41;0.23
'[15:50:04.820]';-0.41;0.17
'[15:50:04.824]';-0.395;0.13
'[15:50:04.828]';-0.375;0.155
'[15:50:04.832]';-0.37;0.195
'[15:50:04.836]';-0.39;0.19
'[15:50:04.840]';-0.415;0.155
'[15:50:04.844]';-0.365;0.16
'[15:50:04.848]';-0.35;0.15
'[15:50:04.852]';-0.385;0.19
'[15:50:04.856]';-0.405;0.2
'[15:50:04.860]';-0.4;0.155
'[15:50:04.864]';-0.405;0.14
'[15:50:04.868]';-0.39;0.135
'[15:50:04.872]';-0.395;0.145
'[15:50:04.876]';-0.38;0.14
'[15:50:04.880]';-0.365;0.16
'[15:50:04.884]';-0.385;0.165
'[15:50:04.888]';-0.385;0.145
'[15:50:04.892]';-0.39;0.135
'[15:50:04.896]';-0.385;0.12
'[15:50:04.900]';-0.34;0.165
'[15:50:04.904]';-0.345;0.165
'[15:50:04.908]';-0.37;0.18
'[15:50:04.912]';-0.37;0.16
'[15:50:04.916]';-0.28;0.09
'[15:50:04.920]';-0.11;0.095
'[15:50:04.924]';0.01;0.2
'[15:50:04.928]';-0.085;0.245
'[15:50:04.932]';-0.31;0.255
'[15:50:04.936]';-0.62;0.305
'[15:50:04.940]';-1.075;0.195
'[15:50:04.944]';-1.57;-0.235
'[15:50:04.948]';-1.985;-0.79
'[15:50:04.952]';-2.35;-1.495
'[15:50:04.956]';-2.565;-2.415
'[15:50:04.960]';-2.595;-3.325
'[15:50:04.964]';-2.515;-4.02
'[15:50:04.968]';-2.435;-4.46
'[15:50:04.972]';-2.415;-4.765
'[15:50:04.976]';-2.415;-4.97
'[15:50:04.980]';-2.38;-5.045
'[15:50:04.984]';-2.345;-5.045
'[15:50:04.988]';-2.3;-4.94
'[15:50:04.992]';-2.245;-4.795
'[15:50:04.996]';-2.115;-4.62
'[15:50:05.000]';-2.015;-4.535
'[15:50:05.004]';-1.97;-4.43
'[15:50:05.008]';-1.905;-4.335
'[15:50:05.012]';-1.715;-4.115
'[15:50:05.016]';-1.45;-3.855
'[15:50:05.020]';-1.215;-3.58
'[15:50:05.024]';-1.095;-3.125
'[15:50:05.028]';-1.005;-2.665
'[15:50:05.032]';-0.845;-2.17
'[15:50:05.036]';-0.65;-1.685
'[15:50:05.040]';-0.48;-1.28
'[15:50:05.044]';-0.33;-0.96
'[15:50:05.048]';-0.195;-0.685
'[15:50:05.052]';-0.105;-0.47
'[15:50:05.056]';-0.085;-0.285
'[15:50:05.060]';-0.02;-0.06
'[15:50:05.064]';0.025;0.135
'[15:50:05.068]';0.05;0.31
'[15:50:05.072]';0.075;0.44
'[15:50:05.076]';0.05;0.53
'[15:50:05.080]';0.06;0.665
'[15:50:05.084]';0.085;0.705
'[15:50:05.088]';0.07;0.755
'[15:50:05.092]';0.105;0.74
'[15:50:05.096]';0.145;0.77
'[15:50:05.100]';0.155;0.81
'[15:50:05.104]';0.205;0.825
'[15:50:05.108]';0.225;0.855
'[15:50:05.112]';0.21;0.92
'[15:50:05.116]';0.215;0.925
'[15:50:05.120]';0.23;0.875
'[15:50:05.124]';0.24;0.86
'[15:50:05.128]';0.24;0.91
'[15:50:05.132]';0.225;0.985
'[15:50:05.136]';0.245;1
'[15:50:05.140]';0.235;0.995
'[15:50:05.144]';0.255;0.98
'[15:50:05.148]';0.285;0.98
'[15:50:05.152]';0.305;1.01
'[15:50:05.156]';0.295;1.045
'[15:50:05.160]';0.33;1.115
'[15:50:05.164]';0.33;1.1
'[15:50:05.168]';0.32;1.08
'[15:50:05.172]';0.335;1.105
'[15:50:05.176]';0.35;1.15
'[15:50:05.180]';0.375;1.165
'[15:50:05.184]';0.395;1.185
'[15:50:05.188]';0.395;1.2
'[15:50:05.192]';0.39;1.23
'[15:50:05.196]';0.4;1.23
'[15:50:05.200]';0.415;1.275
'[15:50:05.204]';0.43;1.3
'[15:50:05.208]';0.455;1.3
'[15:50:05.212]';0.44;1.37
'[15:50:05.216]';0.455;1.395
'[15:50:05.220]';0.475;1.395
'[15:50:05.224]';0.475;1.395
'[15:50:05.228]';0.47;1.4
'[15:50:05.232]';0.45;1.45
'[15:50:05.236]';0.475;1.46
'[15:50:05.240]';0.465;1.465
'[15:50:05.244]';0.455;1.47
'[15:50:05.248]';0.435;1.505
'[15:50:05.252]';0.39;1.48
'[15:50:05.256]';0.365;1.475
'[15:50:05.260]';0.355;1.44
'[15:50:05.264]';0.35;1.405
'[15:50:05.268]';0.315;1.36
'[15:50:05.272]';0.3;1.33
'[15:50:05.276]';0.2;1.3
'[15:50:05.280]';0.125;1.235
'[15:50:05.284]';0.065;1.185
'[15:50:05.288]';0.025;1.12
'[15:50:05.292]';-0.02;1.06
'[15:50:05.296]';-0.03;1.015
'[15:50:05.300]';-0.045;0.92
'[15:50:05.304]';-0.04;0.85
'[15:50:05.308]';-0.075;0.79
'[15:50:05.312]';-0.12;0.725
'[15:50:05.316]';-0.15;0.685
'[15:50:05.320]';-0.16;0.625
'[15:50:05.324]';-0.15;0.54
'[15:50:05.328]';-0.12;0.5
'[15:50:05.332]';-0.12;0.505
'[15:50:05.336]';-0.135;0.475
'[15:50:05.340]';-0.155;0.44
'[15:50:05.344]';-0.195;0.415
'[15:50:05.348]';-0.19;0.365
'[15:50:05.352]';-0.175;0.32
'[15:50:05.356]';-0.175;0.335
'[15:50:05.360]';-0.215;0.305
'[15:50:05.364]';-0.23;0.305
'[15:50:05.368]';-0.22;0.31
'[15:50:05.372]';-0.205;0.31
'[15:50:05.376]';-0.19;0.315
'[15:50:05.380]';-0.21;0.3
'[15:50:05.384]';-0.215;0.3
'[15:50:05.388]';-0.215;0.305
'[15:50:05.392]';-0.235;0.325
'[15:50:05.396]';-0.23;0.31
'[15:50:05.400]';-0.23;0.29
'[15:50:05.404]';-0.205;0.27
'[15:50:05.408]';-0.205;0.245
'[15:50:05.412]';-0.205;0.285
'[15:50:05.416]';-0.18;0.345
'[15:50:05.420]';-0.165;0.38
'[15:50:05.424]';-0.14;0.34
'[15:50:05.428]';-0.14;0.345
'[15:50:05.432]';-0.125;0.33
'[15:50:05.436]';-0.14;0.33
'[15:50:05.440]';-0.125;0.325
'[15:50:05.444]';-0.165;0.32
'[15:50:05.448]';-0.22;0.305
'[15:50:05.452]';-0.17;0.29
'[15:50:05.456]';-0.13;0.325
'[15:50:05.460]';-0.11;0.33
'[15:50:05.464]';-0.115;0.345
'[15:50:05.468]';-0.13;0.335
'[15:50:05.472]';-0.13;0.35
'[15:50:05.476]';-0.15;0.33
'[15:50:05.480]';-0.18;0.33
'[15:50:05.484]';-0.185;0.335
'[15:50:05.488]';-0.19;0.29
'[15:50:05.492]';-0.2;0.29
'[15:50:05.496]';-0.18;0.31
'[15:50:05.500]';-0.17;0.35
'[15:50:05.504]';-0.155;0.335
'[15:50:05.508]';-0.175;0.305
'[15:50:05.512]';-0.145;0.305
'[15:50:05.516]';-0.155;0.345
'[15:50:05.520]';-0.145;0.355
'[15:50:05.524]';-0.155;0.31
'[15:50:05.528]';-0.16;0.305
'[15:50:05.532]';-0.175;0.29
'[15:50:05.536]';-0.17;0.275
'[15:50:05.540]';-0.14;0.29
'[15:50:05.544]';-0.14;0.29
'[15:50:05.548]';-0.155;0.285
'[15:50:05.552]';-0.17;0.305
'[15:50:05.556]';-0.145;0.315
'[15:50:05.560]';-0.145;0.31
'[15:50:05.564]';-0.145;0.295
'[15:50:05.568]';-0.15;0.3
'[15:50:05.572]';-0.15;0.295
'[15:50:05.576]';-0.135;0.285
'[15:50:05.580]';-0.155;0.27
'[15:50:05.584]';-0.165;0.245
'[15:50:05.588]';-0.135;0.245
'[15:50:05.592]';-0.13;0.22
'[15:50:05.596]';-0.17;0.24
'[15:50:05.600]';-0.155;0.275
'[15:50:05.604]';-0.145;0.265
'[15:50:05.608]';-0.145;0.215
'[15:50:05.612]';-0.14;0.22
'[15:50:05.616]';-0.15;0.215
'[15:50:05.620]';-0.145;0.225
'[15:50:05.624]';-0.2;0.2
'[15:50:05.628]';-0.215;0.18
'[15:50:05.632]';-0.22;0.19
'[15:50:05.636]';-0.195;0.205
'[15:50:05.640]';-0.185;0.19
'[15:50:05.644]';-0.155;0.215
'[15:50:05.648]';-0.115;0.225
'[15:50:05.652]';-0.1;0.2
'[15:50:05.656]';-0.115;0.195
'[15:50:05.660]';-0.1;0.165
'[15:50:05.664]';-0.04;0.19
'[15:50:05.668]';0.01;0.22
'[15:50:05.672]';0;0.27
'[15:50:05.676]';-0.01;0.305
'[15:50:05.680]';-0.01;0.29
'[15:50:05.684]';-0.055;0.34
'[15:50:05.688]';-0.09;0.355
'[15:50:05.692]';-0.095;0.305
'[15:50:05.696]';-0.11;0.275
'[15:50:05.700]';-0.13;0.26
'[15:50:05.704]';-0.12;0.23
'[15:50:05.708]';-0.135;0.185
'[15:50:05.712]';-0.115;0.14
'[15:50:05.716]';-0.1;0.13
'[15:50:05.720]';-0.045;0.15
'[15:50:05.724]';0;0.15
'[15:50:05.728]';0;0.17
'[15:50:05.732]';-0.03;0.2
'[15:50:05.736]';-0.045;0.2
'[15:50:05.740]';-0.075;0.23
'[15:50:05.744]';-0.175;0.275
'[15:50:05.748]';-0.28;0.25
'[15:50:05.752]';-0.295;0.2
'[15:50:05.756]';-0.3;0.155
'[15:50:05.760]';-0.255;0.15
'[15:50:05.764]';-0.24;0.17
'[15:50:05.768]';-0.25;0.155
'[15:50:05.772]';-0.265;0.155
'[15:50:05.776]';-0.265;0.18
'[15:50:05.780]';-0.25;0.175
'[15:50:05.784]';-0.255;0.155
'[15:50:05.788]';-0.27;0.15
'[15:50:05.792]';-0.285;0.17
'[15:50:05.796]';-0.27;0.165
'[15:50:05.800]';-0.265;0.155
'[15:50:05.804]';-0.245;0.13
'[15:50:05.808]';-0.23;0.13
'[15:50:05.812]';-0.225;0.13
'[15:50:05.816]';-0.215;0.15
'[15:50:05.820]';-0.235;0.13
'[15:50:05.824]';-0.24;0.17
'[15:50:05.828]';-0.29;0.195
'[15:50:05.832]';-0.3;0.16
'[15:50:05.836]';-0.3;0.1
'[15:50:05.840]';-0.285;0.12
'[15:50:05.844]';-0.25;0.155
'[15:50:05.848]';-0.17;0.13
'[15:50:05.852]';-0.03;0.15
'[15:50:05.856]';0.055;0.19
'[15:50:05.860]';0.03;0.22
'[15:50:05.864]';-0.09;0.295
'[15:50:05.868]';-0.305;0.345
'[15:50:05.872]';-0.655;0.29
'[15:50:05.876]';-1.12;-0.095
'[15:50:05.880]';-1.56;-0.66
'[15:50:05.884]';-1.94;-1.38
'[15:50:05.888]';-2.225;-2.31
'[15:50:05.892]';-2.27;-3.25
'[15:50:05.896]';-2.215;-3.955
'[15:50:05.900]';-2.16;-4.45
'[15:50:05.904]';-2.16;-4.745
'[15:50:05.908]';-2.24;-4.905
'[15:50:05.912]';-2.23;-5.005
'[15:50:05.916]';-2.235;-5
'[15:50:05.920]';-2.25;-4.9
'[15:50:05.924]';-2.225;-4.775
'[15:50:05.928]';-2.11;-4.68
'[15:50:05.932]';-2.035;-4.58
'[15:50:05.936]';-1.985;-4.495
'[15:50:05.940]';-1.79;-4.38
'[15:50:05.944]';-1.555;-4.18
'[15:50:05.948]';-1.335;-3.89
'[15:50:05.952]';-1.15;-3.58
'[15:50:05.956]';-1.005;-3.17
'[15:50:05.960]';-0.885;-2.695
'[15:50:05.964]';-0.725;-2.155
'[15:50:05.968]';-0.525;-1.61
'[15:50:05.972]';-0.35;-1.24
'[15:50:05.976]';-0.21;-0.885
'[15:50:05.980]';-0.085;-0.61
'[15:50:05.984]';-0.03;-0.37
'[15:50:05.988]';0.015;-0.165
'[15:50:05.992]';0.035;0.065
'[15:50:05.996]';0.06;0.32
'[15:50:06.000]';0.115;0.45
'[15:50:06.004]';0.125;0.555
'[15:50:06.008]';0.155;0.655
'[15:50:06.012]';0.175;0.73
'[15:50:06.016]';0.155;0.78
'[15:50:06.020]';0.185;0.805
'[15:50:06.024]';0.2;0.81
'[15:50:06.028]';0.23;0.83
'[15:50:06.032]';0.24;0.885
'[15:50:06.036]';0.2;0.945
'[15:50:06.040]';0.195;0.93
'[15:50:06.044]';0.22;0.9
'[15:50:06.048]';0.28;0.95
'[15:50:06.052]';0.3;0.955
'[15:50:06.056]';0.26;0.975
'[15:50:06.060]';0.26;0.945
'[15:50:06.064]';0.3;0.98
'[15:50:06.068]';0.33;1.01
'[15:50:06.072]';0.345;1.045
'[15:50:06.076]';0.35;1.07
'[15:50:06.080]';0.36;1.085
'[15:50:06.084]';0.39;1.11
'[15:50:06.088]';0.4;1.145
'[15:50:06.092]';0.4;1.14
'[15:50:06.096]';0.385;1.16
'[15:50:06.100]';0.38;1.165
'[15:50:06.104]';0.39;1.2
'[15:50:06.108]';0.43;1.2
'[15:50:06.112]';0.45;1.25
'[15:50:06.116]';0.455;1.285
'[15:50:06.120]';0.48;1.315
'[15:50:06.124]';0.5;1.35
'[15:50:06.128]';0.525;1.405
'[15:50:06.132]';0.505;1.415
'[15:50:06.136]';0.475;1.425
'[15:50:06.140]';0.47;1.455
'[15:50:06.144]';0.48;1.455
'[15:50:06.148]';0.5;1.495
'[15:50:06.152]';0.515;1.495
'[15:50:06.156]';0.515;1.515
'[15:50:06.160]';0.52;1.525
'[15:50:06.164]';0.48;1.55
'[15:50:06.168]';0.475;1.555
'[15:50:06.172]';0.46;1.555
'[15:50:06.176]';0.44;1.56
'[15:50:06.180]';0.405;1.545
'[15:50:06.184]';0.395;1.505
'[15:50:06.188]';0.38;1.47
'[15:50:06.192]';0.305;1.395
'[15:50:06.196]';0.275;1.37
'[15:50:06.200]';0.24;1.315
'[15:50:06.204]';0.175;1.255
'[15:50:06.208]';0.1;1.21
'[15:50:06.212]';0.05;1.115
'[15:50:06.216]';0.025;1.05
'[15:50:06.220]';0.015;0.95
'[15:50:06.224]';0.015;0.96
'[15:50:06.228]';-0.04;0.895
'[15:50:06.232]';-0.075;0.755
'[15:50:06.236]';-0.11;0.67
'[15:50:06.240]';-0.125;0.615
'[15:50:06.244]';-0.14;0.59
'[15:50:06.248]';-0.16;0.55
'[15:50:06.252]';-0.17;0.48
'[15:50:06.256]';-0.19;0.44
'[15:50:06.260]';-0.2;0.41
'[15:50:06.264]';-0.19;0.38
'[15:50:06.268]';-0.18;0.365
'[15:50:06.272]';-0.17;0.35
'[15:50:06.276]';-0.16;0.3
'[15:50:06.280]';-0.21;0.32
'[15:50:06.284]';-0.24;0.3
'[15:50:06.288]';-0.26;0.27
'[15:50:06.292]';-0.215;0.265
'[15:50:06.296]';-0.18;0.275
'[15:50:06.300]';-0.17;0.275
'[15:50:06.304]';-0.185;0.29
'[15:50:06.308]';-0.21;0.3
'[15:50:06.312]';-0.205;0.29
'[15:50:06.316]';-0.22;0.3
'[15:50:06.320]';-0.215;0.29
'[15:50:06.324]';-0.185;0.285
'[15:50:06.328]';-0.15;0.295
'[15:50:06.332]';-0.125;0.29
'[15:50:06.336]';-0.135;0.3
'[15:50:06.340]';-0.155;0.305
'[15:50:06.344]';-0.14;0.305
'[15:50:06.348]';-0.125;0.31
'[15:50:06.352]';-0.15;0.32
'[15:50:06.356]';-0.16;0.355
'[15:50:06.360]';-0.145;0.34
'[15:50:06.364]';-0.13;0.33
'[15:50:06.368]';-0.14;0.3
'[15:50:06.372]';-0.13;0.3
'[15:50:06.376]';-0.125;0.325
'[15:50:06.380]';-0.105;0.34
'[15:50:06.384]';-0.13;0.3
'[15:50:06.388]';-0.135;0.29
'[15:50:06.392]';-0.12;0.31
'[15:50:06.396]';-0.14;0.28
'[15:50:06.400]';-0.15;0.34
'[15:50:06.404]';-0.13;0.355
'[15:50:06.408]';-0.1;0.295
'[15:50:06.412]';-0.075;0.275
'[15:50:06.416]';-0.09;0.26
'[15:50:06.420]';-0.105;0.275
'[15:50:06.424]';-0.105;0.28
'[15:50:06.428]';-0.15;0.285
'[15:50:06.432]';-0.155;0.31
'[15:50:06.436]';-0.16;0.325
'[15:50:06.440]';-0.14;0.28
'[15:50:06.444]';-0.145;0.26
'[15:50:06.448]';-0.16;0.235
'[15:50:06.452]';-0.13;0.23
'[15:50:06.456]';-0.18;0.235
'[15:50:06.460]';-0.165;0.245
'[15:50:06.464]';-0.13;0.225
'[15:50:06.468]';-0.085;0.23
'[15:50:06.472]';-0.125;0.28
'[15:50:06.476]';-0.17;0.27
'[15:50:06.480]';-0.16;0.27
'[15:50:06.484]';-0.175;0.26
'[15:50:06.488]';-0.17;0.28
'[15:50:06.492]';-0.135;0.255
'[15:50:06.496]';-0.16;0.23
'[15:50:06.500]';-0.185;0.23
'[15:50:06.504]';-0.205;0.27
'[15:50:06.508]';-0.15;0.24
'[15:50:06.512]';-0.14;0.19
'[15:50:06.516]';-0.175;0.195
'[15:50:06.520]';-0.19;0.2
'[15:50:06.524]';-0.18;0.215
'[15:50:06.528]';-0.165;0.225
'[15:50:06.532]';-0.175;0.215
'[15:50:06.536]';-0.18;0.19
'[15:50:06.540]';-0.2;0.205
'[15:50:06.544]';-0.205;0.205
'[15:50:06.548]';-0.18;0.19
'[15:50:06.552]';-0.19;0.175
'[15:50:06.556]';-0.185;0.165
'[15:50:06.560]';-0.185;0.165
'[15:50:06.564]';-0.175;0.21
'[15:50:06.568]';-0.185;0.23
'[15:50:06.572]';-0.22;0.22
'[15:50:06.576]';-0.24;0.21
'[15:50:06.580]';-0.2;0.205
'[15:50:06.584]';-0.185;0.23
'[15:50:06.588]';-0.155;0.195
'[15:50:06.592]';-0.15;0.155
'[15:50:06.596]';-0.125;0.16
'[15:50:06.600]';-0.1;0.17
'[15:50:06.604]';-0.045;0.2
'[15:50:06.608]';-0.02;0.235
'[15:50:06.612]';0.025;0.27
'[15:50:06.616]';0.02;0.34
'[15:50:06.620]';-0.005;0.34
'[15:50:06.624]';-0.04;0.35
'[15:50:06.628]';-0.085;0.32
'[15:50:06.632]';-0.09;0.31
'[15:50:06.636]';-0.12;0.265
'[15:50:06.640]';-0.1;0.245
'[15:50:06.644]';-0.135;0.215
'[15:50:06.648]';-0.14;0.19
'[15:50:06.652]';-0.11;0.15
'[15:50:06.656]';-0.11;0.135
'[15:50:06.660]';-0.065;0.14
'[15:50:06.664]';-0.035;0.12
'[15:50:06.668]';-0.045;0.1
'[15:50:06.672]';-0.065;0.14
'[15:50:06.676]';-0.09;0.21
'[15:50:06.680]';-0.155;0.22
'[15:50:06.684]';-0.18;0.205
'[15:50:06.688]';-0.245;0.23
'[15:50:06.692]';-0.3;0.195
'[15:50:06.696]';-0.305;0.175
'[15:50:06.700]';-0.275;0.155
'[15:50:06.704]';-0.25;0.145
'[15:50:06.708]';-0.26;0.135
'[15:50:06.712]';-0.295;0.16
'[15:50:06.716]';-0.31;0.11
'[15:50:06.720]';-0.315;0.075
'[15:50:06.724]';-0.27;0.09
'[15:50:06.728]';-0.265;0.11
'[15:50:06.732]';-0.28;0.15
'[15:50:06.736]';-0.28;0.165
'[15:50:06.740]';-0.28;0.135
'[15:50:06.744]';-0.29;0.155
'[15:50:06.748]';-0.27;0.17
'[15:50:06.752]';-0.285;0.13
'[15:50:06.756]';-0.26;0.1
'[15:50:06.760]';-0.275;0.11
'[15:50:06.764]';-0.285;0.17
'[15:50:06.768]';-0.28;0.16
'[15:50:06.772]';-0.305;0.145
'[15:50:06.776]';-0.32;0.14
'[15:50:06.780]';-0.305;0.135
'[15:50:06.784]';-0.255;0.155
'[15:50:06.788]';-0.16;0.165
'[15:50:06.792]';-0.07;0.155
'[15:50:06.796]';0.025;0.12
'[15:50:06.800]';-0.01;0.14
'[15:50:06.804]';-0.17;0.21
'[15:50:06.808]';-0.395;0.275
'[15:50:06.812]';-0.765;0.195
'[15:50:06.816]';-1.235;-0.195
'[15:50:06.820]';-1.65;-0.74
'[15:50:06.824]';-2.02;-1.49
'[15:50:06.828]';-2.23;-2.44
'[15:50:06.832]';-2.21;-3.43
'[15:50:06.836]';-2.085;-4.125
'[15:50:06.840]';-2.07;-4.565
'[15:50:06.844]';-2.165;-4.83
'[15:50:06.848]';-2.22;-4.985
'[15:50:06.852]';-2.185;-5.06
'[15:50:06.856]';-2.21;-5.03
'[15:50:06.860]';-2.23;-4.945
'[15:50:06.864]';-2.24;-4.825
'[15:50:06.868]';-2.115;-4.735
'[15:50:06.872]';-2.05;-4.635
'[15:50:06.876]';-1.965;-4.565
'[15:50:06.880]';-1.785;-4.45
'[15:50:06.884]';-1.54;-4.21
'[15:50:06.888]';-1.295;-3.925
'[15:50:06.892]';-1.1;-3.595
'[15:50:06.896]';-0.96;-3.185
'[15:50:06.900]';-0.825;-2.72
'[15:50:06.904]';-0.68;-2.19
'[15:50:06.908]';-0.475;-1.695
'[15:50:06.912]';-0.345;-1.275
'[15:50:06.916]';-0.2;-0.895
'[15:50:06.920]';-0.115;-0.585
'[15:50:06.924]';-0.03;-0.32
'[15:50:06.928]';-0.005;-0.1
'[15:50:06.932]';0.02;0.035
'[15:50:06.936]';0.035;0.225
'[15:50:06.940]';0.06;0.405
'[15:50:06.944]';0.06;0.56
'[15:50:06.948]';0.085;0.665
'[15:50:06.952]';0.075;0.73
'[15:50:06.956]';0.08;0.8
'[15:50:06.960]';0.11;0.795
'[15:50:06.964]';0.135;0.855
'[15:50:06.968]';0.14;0.875
'[15:50:06.972]';0.14;0.825
'[15:50:06.976]';0.155;0.82
'[15:50:06.980]';0.17;0.89
'[15:50:06.984]';0.17;0.91
'[15:50:06.988]';0.21;0.91
'[15:50:06.992]';0.27;0.92
'[15:50:06.996]';0.265;0.96
'[15:50:07.000]';0.255;0.96
'[15:50:07.004]';0.255;0.965
'[15:50:07.008]';0.25;0.995
'[15:50:07.012]';0.255;1.005
'[15:50:07.016]';0.27;1.015
'[15:50:07.020]';0.27;1.04
'[15:50:07.024]';0.29;1.04
'[15:50:07.028]';0.315;1.07
'[15:50:07.032]';0.295;1.09
'[15:50:07.036]';0.29;1.13
'[15:50:07.040]';0.305;1.13
'[15:50:07.044]';0.34;1.145
'[15:50:07.048]';0.365;1.185
'[15:50:07.052]';0.365;1.24
'[15:50:07.056]';0.34;1.255
'[15:50:07.060]';0.375;1.26
'[15:50:07.064]';0.405;1.285
'[15:50:07.068]';0.42;1.305
'[15:50:07.072]';0.425;1.335
'[15:50:07.076]';0.43;1.35
'[15:50:07.080]';0.455;1.38
'[15:50:07.084]';0.46;1.425
'[15:50:07.088]';0.455;1.45
'[15:50:07.092]';0.45;1.465
'[15:50:07.096]';0.455;1.475
'[15:50:07.100]';0.48;1.5
'[15:50:07.104]';0.465;1.515
'[15:50:07.108]';0.445;1.53
'[15:50:07.112]';0.425;1.52
'[15:50:07.116]';0.44;1.54
'[15:50:07.120]';0.39;1.52
'[15:50:07.124]';0.385;1.48
'[15:50:07.128]';0.355;1.48
'[15:50:07.132]';0.3;1.45
'[15:50:07.136]';0.265;1.41
'[15:50:07.140]';0.235;1.375
'[15:50:07.144]';0.21;1.3
'[15:50:07.148]';0.145;1.245
'[15:50:07.152]';0.105;1.155
'[15:50:07.156]';0.06;1.105
'[15:50:07.160]';0.015;1.07
'[15:50:07.164]';-0.025;1
'[15:50:07.168]';-0.05;0.89
'[15:50:07.172]';-0.075;0.83
'[15:50:07.176]';-0.07;0.745
'[15:50:07.180]';-0.13;0.73
'[15:50:07.184]';-0.155;0.65
'[15:50:07.188]';-0.15;0.575
'[15:50:07.192]';-0.165;0.53
'[15:50:07.196]';-0.2;0.5
'[15:50:07.200]';-0.18;0.46
'[15:50:07.204]';-0.21;0.435
'[15:50:07.208]';-0.275;0.4
'[15:50:07.212]';-0.265;0.35
'[15:50:07.216]';-0.25;0.335
'[15:50:07.220]';-0.23;0.34
'[15:50:07.224]';-0.205;0.325
'[15:50:07.228]';-0.235;0.29
'[15:50:07.232]';-0.29;0.3
'[15:50:07.236]';-0.32;0.29
'[15:50:07.240]';-0.3;0.27
'[15:50:07.244]';-0.31;0.305
'[15:50:07.248]';-0.295;0.32
'[15:50:07.252]';-0.285;0.27
'[15:50:07.256]';-0.25;0.22
'[15:50:07.260]';-0.245;0.26
'[15:50:07.264]';-0.235;0.33
'[15:50:07.268]';-0.24;0.3
'[15:50:07.272]';-0.28;0.265
'[15:50:07.276]';-0.235;0.27
'[15:50:07.280]';-0.215;0.275
'[15:50:07.284]';-0.225;0.285
'[15:50:07.288]';-0.26;0.29
'[15:50:07.292]';-0.26;0.3
'[15:50:07.296]';-0.26;0.335
'[15:50:07.300]';-0.225;0.305
'[15:50:07.304]';-0.2;0.295
'[15:50:07.308]';-0.195;0.275
'[15:50:07.312]';-0.195;0.28
'[15:50:07.316]';-0.215;0.31
'[15:50:07.320]';-0.225;0.3
'[15:50:07.324]';-0.255;0.3
'[15:50:07.328]';-0.28;0.295
'[15:50:07.332]';-0.255;0.31
'[15:50:07.336]';-0.24;0.29
'[15:50:07.340]';-0.2;0.28
'[15:50:07.344]';-0.185;0.285
'[15:50:07.348]';-0.22;0.3
'[15:50:07.352]';-0.23;0.31
'[15:50:07.356]';-0.215;0.3
'[15:50:07.360]';-0.19;0.275
'[15:50:07.364]';-0.205;0.27
'[15:50:07.368]';-0.245;0.3
'[15:50:07.372]';-0.25;0.305
'[15:50:07.376]';-0.25;0.29
'[15:50:07.380]';-0.23;0.25
'[15:50:07.384]';-0.21;0.305
'[15:50:07.388]';-0.21;0.28
'[15:50:07.392]';-0.23;0.255
'[15:50:07.396]';-0.235;0.25
'[15:50:07.400]';-0.24;0.245
'[15:50:07.404]';-0.2;0.235
'[15:50:07.408]';-0.195;0.24
'[15:50:07.412]';-0.22;0.225
'[15:50:07.416]';-0.24;0.2
'[15:50:07.420]';-0.27;0.195
'[15:50:07.424]';-0.285;0.195
'[15:50:07.428]';-0.25;0.215
'[15:50:07.432]';-0.245;0.205
'[15:50:07.436]';-0.225;0.205
'[15:50:07.440]';-0.2;0.21
'[15:50:07.444]';-0.255;0.19
'[15:50:07.448]';-0.245;0.19
'[15:50:07.452]';-0.255;0.185
'[15:50:07.456]';-0.25;0.19
'[15:50:07.460]';-0.25;0.2
'[15:50:07.464]';-0.265;0.19
'[15:50:07.468]';-0.27;0.215
'[15:50:07.472]';-0.295;0.185
'[15:50:07.476]';-0.29;0.13
'[15:50:07.480]';-0.27;0.145
'[15:50:07.484]';-0.25;0.165
'[15:50:07.488]';-0.26;0.17
'[15:50:07.492]';-0.235;0.155
'[15:50:07.496]';-0.255;0.19
'[15:50:07.500]';-0.285;0.165
'[15:50:07.504]';-0.26;0.19
'[15:50:07.508]';-0.245;0.195
'[15:50:07.512]';-0.25;0.18
'[15:50:07.516]';-0.255;0.2
'[15:50:07.520]';-0.29;0.195
'[15:50:07.524]';-0.285;0.17
'[15:50:07.528]';-0.285;0.155
'[15:50:07.532]';-0.26;0.19
'[15:50:07.536]';-0.255;0.21
'[15:50:07.540]';-0.28;0.2
'[15:50:07.544]';-0.27;0.175
'[15:50:07.548]';-0.27;0.185
'[15:50:07.552]';-0.24;0.18
'[15:50:07.556]';-0.215;0.185
'[15:50:07.560]';-0.195;0.18
'[15:50:07.564]';-0.16;0.195
'[15:50:07.568]';-0.13;0.205
'[15:50:07.572]';-0.075;0.2
'[15:50:07.576]';-0.045;0.22
'[15:50:07.580]';-0.005;0.26
'[15:50:07.584]';-0.025;0.335
'[15:50:07.588]';-0.055;0.355
'[15:50:07.592]';-0.095;0.36
'[15:50:07.596]';-0.13;0.31
'[15:50:07.600]';-0.155;0.315
'[15:50:07.604]';-0.195;0.305
'[15:50:07.608]';-0.22;0.27
'[15:50:07.612]';-0.225;0.185
'[15:50:07.616]';-0.22;0.175
'[15:50:07.620]';-0.17;0.16
'[15:50:07.624]';-0.13;0.11
'[15:50:07.628]';-0.1;0.08
'[15:50:07.632]';-0.1;0.095
'[15:50:07.636]';-0.105;0.1
'[15:50:07.640]';-0.145;0.09
'[15:50:07.644]';-0.135;0.145
'[15:50:07.648]';-0.19;0.16
'[15:50:07.652]';-0.235;0.215
'[15:50:07.656]';-0.32;0.235
'[15:50:07.660]';-0.32;0.22
'[15:50:07.664]';-0.33;0.175
'[15:50:07.668]';-0.34;0.125
'[15:50:07.672]';-0.345;0.085
'[15:50:07.676]';-0.36;0.115
'[15:50:07.680]';-0.38;0.115
'[15:50:07.684]';-0.4;0.08
'[15:50:07.688]';-0.4;0.08
'[15:50:07.692]';-0.39;0.115
'[15:50:07.696]';-0.395;0.14
'[15:50:07.700]';-0.355;0.15
'[15:50:07.704]';-0.375;0.14
'[15:50:07.708]';-0.36;0.09
'[15:50:07.712]';-0.3;0.1
'[15:50:07.716]';-0.3;0.11
'[15:50:07.720]';-0.335;0.115
'[15:50:07.724]';-0.34;0.115
'[15:50:07.728]';-0.36;0.14
'[15:50:07.732]';-0.395;0.14
'[15:50:07.736]';-0.41;0.105
'[15:50:07.740]';-0.39;0.1
'[15:50:07.744]';-0.375;0.085
'[15:50:07.748]';-0.375;0.1
'[15:50:07.752]';-0.37;0.08
'[15:50:07.756]';-0.345;0.1
'[15:50:07.760]';-0.305;0.1
'[15:50:07.764]';-0.22;0.095
'[15:50:07.768]';-0.085;0.075
'[15:50:07.772]';-0.055;0.115
'[15:50:07.776]';-0.205;0.19
'[15:50:07.780]';-0.46;0.23
'[15:50:07.784]';-0.78;0.26
'[15:50:07.788]';-1.23;0
'[15:50:07.792]';-1.655;-0.53
'[15:50:07.796]';-2.045;-1.14
'[15:50:07.800]';-2.355;-1.99
'[15:50:07.804]';-2.455;-2.995
'[15:50:07.808]';-2.37;-3.825
'[15:50:07.812]';-2.195;-4.39
'[15:50:07.816]';-2.14;-4.72
'[15:50:07.820]';-2.195;-4.945
'[15:50:07.824]';-2.225;-5.05
'[15:50:07.828]';-2.26;-5.08
'[15:50:07.832]';-2.3;-5.07
'[15:50:07.836]';-2.385;-4.995
'[15:50:07.840]';-2.34;-4.86
'[15:50:07.844]';-2.22;-4.77
'[15:50:07.848]';-2.11;-4.675
'[15:50:07.852]';-2.085;-4.57
'[15:50:07.856]';-2;-4.47
'[15:50:07.860]';-1.855;-4.315
'[15:50:07.864]';-1.59;-4.01
'[15:50:07.868]';-1.33;-3.735
'[15:50:07.872]';-1.175;-3.36
'[15:50:07.876]';-1.035;-2.895
'[15:50:07.880]';-0.885;-2.435
'[15:50:07.884]';-0.715;-1.94
'[15:50:07.888]';-0.5;-1.475
'[15:50:07.892]';-0.365;-1.095
'[15:50:07.896]';-0.225;-0.8
'[15:50:07.900]';-0.13;-0.52
'[15:50:07.904]';-0.09;-0.25
'[15:50:07.908]';-0.065;-0.07
'[15:50:07.912]';-0.05;0.09
'[15:50:07.916]';-0.03;0.285
'[15:50:07.920]';-0.03;0.415
'[15:50:07.924]';-0.005;0.575
'[15:50:07.928]';-0.005;0.665
'[15:50:07.932]';0.01;0.695
'[15:50:07.936]';0.05;0.76
'[15:50:07.940]';0.06;0.785
'[15:50:07.944]';0.055;0.82
'[15:50:07.948]';0.07;0.815
'[15:50:07.952]';0.105;0.815
'[15:50:07.956]';0.14;0.86
'[15:50:07.960]';0.08;0.885
'[15:50:07.964]';0.065;0.86
'[15:50:07.968]';0.06;0.9
'[15:50:07.972]';0.08;0.915
'[15:50:07.976]';0.13;0.915
'[15:50:07.980]';0.14;0.925
'[15:50:07.984]';0.15;0.955
'[15:50:07.988]';0.145;0.955
'[15:50:07.992]';0.12;0.98
'[15:50:07.996]';0.155;1.01
'[15:50:08.000]';0.185;1.03
'[15:50:08.004]';0.25;1.06
'[15:50:08.008]';0.25;1.09
'[15:50:08.012]';0.21;1.095
'[15:50:08.016]';0.205;1.125
'[15:50:08.020]';0.22;1.125
'[15:50:08.024]';0.265;1.12
'[15:50:08.028]';0.28;1.125
'[15:50:08.032]';0.29;1.165
'[15:50:08.036]';0.305;1.215
'[15:50:08.040]';0.32;1.24
'[15:50:08.044]';0.325;1.26
'[15:50:08.048]';0.34;1.265
'[15:50:08.052]';0.345;1.3
'[15:50:08.056]';0.355;1.355
'[15:50:08.060]';0.37;1.385
'[15:50:08.064]';0.38;1.38
'[15:50:08.068]';0.38;1.395
'[15:50:08.072]';0.39;1.435
'[15:50:08.076]';0.42;1.45
'[15:50:08.080]';0.425;1.435
'[15:50:08.084]';0.415;1.465
'[15:50:08.088]';0.425;1.53
'[15:50:08.092]';0.395;1.53
'[15:50:08.096]';0.355;1.53
'[15:50:08.100]';0.32;1.52
'[15:50:08.104]';0.32;1.53
'[15:50:08.108]';0.295;1.53
'[15:50:08.112]';0.26;1.475
'[15:50:08.116]';0.235;1.46
'[15:50:08.120]';0.22;1.43
'[15:50:08.124]';0.175;1.37
'[15:50:08.128]';0.11;1.32
'[15:50:08.132]';0.04;1.225
'[15:50:08.136]';0.02;1.235
'[15:50:08.140]';-0.005;1.19
'[15:50:08.144]';-0.08;1.12
'[15:50:08.148]';-0.13;1.045
'[15:50:08.152]';-0.165;0.935
'[15:50:08.156]';-0.185;0.85
'[15:50:08.160]';-0.195;0.79
'[15:50:08.164]';-0.185;0.735
'[15:50:08.168]';-0.23;0.67
'[15:50:08.172]';-0.275;0.61
'[15:50:08.176]';-0.25;0.555
'[15:50:08.180]';-0.295;0.52
'[15:50:08.184]';-0.355;0.49
'[15:50:08.188]';-0.38;0.465
'[15:50:08.192]';-0.405;0.43
'[15:50:08.196]';-0.39;0.365
'[15:50:08.200]';-0.38;0.335
'[15:50:08.204]';-0.375;0.32
'[15:50:08.208]';-0.385;0.305
'[15:50:08.212]';-0.38;0.29
'[15:50:08.216]';-0.35;0.315
'[15:50:08.220]';-0.355;0.3
'[15:50:08.224]';-0.34;0.29
'[15:50:08.228]';-0.335;0.29
'[15:50:08.232]';-0.375;0.31
'[15:50:08.236]';-0.37;0.315
'[15:50:08.240]';-0.35;0.3
'[15:50:08.244]';-0.34;0.255
'[15:50:08.248]';-0.365;0.25
'[15:50:08.252]';-0.39;0.285
'[15:50:08.256]';-0.355;0.27
'[15:50:08.260]';-0.32;0.29
'[15:50:08.264]';-0.355;0.285
'[15:50:08.268]';-0.37;0.275
'[15:50:08.272]';-0.34;0.275
'[15:50:08.276]';-0.34;0.275
'[15:50:08.280]';-0.355;0.355
'[15:50:08.284]';-0.375;0.34
'[15:50:08.288]';-0.36;0.28
'[15:50:08.292]';-0.31;0.245
'[15:50:08.296]';-0.33;0.255
'[15:50:08.300]';-0.34;0.26
'[15:50:08.304]';-0.375;0.27
'[15:50:08.308]';-0.375;0.31
'[15:50:08.312]';-0.345;0.295
'[15:50:08.316]';-0.335;0.305
'[15:50:08.320]';-0.335;0.295
'[15:50:08.324]';-0.325;0.29
'[15:50:08.328]';-0.31;0.3
'[15:50:08.332]';-0.325;0.26
'[15:50:08.336]';-0.32;0.25
'[15:50:08.340]';-0.33;0.285
'[15:50:08.344]';-0.3;0.3
'[15:50:08.348]';-0.265;0.285
'[15:50:08.352]';-0.285;0.275
'[15:50:08.356]';-0.33;0.265
'[15:50:08.360]';-0.34;0.245
'[15:50:08.364]';-0.34;0.245
'[15:50:08.368]';-0.315;0.255
'[15:50:08.372]';-0.31;0.24
'[15:50:08.376]';-0.34;0.275
'[15:50:08.380]';-0.355;0.29
'[15:50:08.384]';-0.33;0.24
'[15:50:08.388]';-0.34;0.205
'[15:50:08.392]';-0.315;0.205
'[15:50:08.396]';-0.295;0.23
'[15:50:08.400]';-0.305;0.215
'[15:50:08.404]';-0.305;0.2
'[15:50:08.408]';-0.28;0.175
'[15:50:08.412]';-0.32;0.205
'[15:50:08.416]';-0.33;0.205
'[15:50:08.420]';-0.325;0.215
'[15:50:08.424]';-0.35;0.21
'[15:50:08.428]';-0.35;0.19
'[15:50:08.432]';-0.35;0.19
'[15:50:08.436]';-0.335;0.135
'[15:50:08.440]';-0.31;0.15
'[15:50:08.444]';-0.315;0.165
'[15:50:08.448]';-0.32;0.195
'[15:50:08.452]';-0.345;0.185
'[15:50:08.456]';-0.35;0.185
'[15:50:08.460]';-0.35;0.215
'[15:50:08.464]';-0.355;0.2
'[15:50:08.468]';-0.355;0.15
'[15:50:08.472]';-0.36;0.165
'[15:50:08.476]';-0.345;0.145
'[15:50:08.480]';-0.325;0.12
'[15:50:08.484]';-0.33;0.14
'[15:50:08.488]';-0.355;0.18
'[15:50:08.492]';-0.35;0.175
'[15:50:08.496]';-0.35;0.135
'[15:50:08.500]';-0.345;0.135
'[15:50:08.504]';-0.32;0.125
'[15:50:08.508]';-0.31;0.11
'[15:50:08.512]';-0.3;0.16
'[15:50:08.516]';-0.33;0.155
'[15:50:08.520]';-0.355;0.12
'[15:50:08.524]';-0.36;0.15
'[15:50:08.528]';-0.365;0.115
'[15:50:08.532]';-0.385;0.09
'[15:50:08.536]';-0.39;0.12
'[15:50:08.540]';-0.34;0.145
'[15:50:08.544]';-0.355;0.165
'[15:50:08.548]';-0.34;0.16
'[15:50:08.552]';-0.355;0.155
'[15:50:08.556]';-0.32;0.155
'[15:50:08.560]';-0.31;0.13
'[15:50:08.564]';-0.25;0.18
'[15:50:08.568]';-0.245;0.17
'[15:50:08.572]';-0.18;0.185
'[15:50:08.576]';-0.15;0.205
'[15:50:08.580]';-0.12;0.22
'[15:50:08.584]';-0.115;0.275
'[15:50:08.588]';-0.12;0.335
'[15:50:08.592]';-0.175;0.34
'[15:50:08.596]';-0.23;0.305
'[15:50:08.600]';-0.255;0.285
'[15:50:08.604]';-0.265;0.275
'[15:50:08.608]';-0.24;0.25
'[15:50:08.612]';-0.225;0.215
'[15:50:08.616]';-0.265;0.16
'[15:50:08.620]';-0.285;0.11
'[15:50:08.624]';-0.245;0.1
'[15:50:08.628]';-0.21;0.115
'[15:50:08.632]';-0.2;0.115
'[15:50:08.636]';-0.175;0.12
'[15:50:08.640]';-0.2;0.145
'[15:50:08.644]';-0.27;0.135
'[15:50:08.648]';-0.315;0.155
'[15:50:08.652]';-0.355;0.2
'[15:50:08.656]';-0.41;0.21
'[15:50:08.660]';-0.44;0.175
'[15:50:08.664]';-0.455;0.15
'[15:50:08.668]';-0.44;0.075
'[15:50:08.672]';-0.44;0.095
'[15:50:08.676]';-0.435;0.075
'[15:50:08.680]';-0.445;0.06
'[15:50:08.684]';-0.445;0.05
'[15:50:08.688]';-0.415;0.07
'[15:50:08.692]';-0.465;0.115
'[15:50:08.696]';-0.49;0.115
'[15:50:08.700]';-0.47;0.12
'[15:50:08.704]';-0.435;0.085
'[15:50:08.708]';-0.43;0.045
'[15:50:08.712]';-0.48;0.055
'[15:50:08.716]';-0.51;0.06
'[15:50:08.720]';-0.48;0.045
'[15:50:08.724]';-0.48;0.075
'[15:50:08.728]';-0.45;0.085
'[15:50:08.732]';-0.435;0.105
'[15:50:08.736]';-0.465;0.125
'[15:50:08.740]';-0.52;0.135
'[15:50:08.744]';-0.53;0.125
'[15:50:08.748]';-0.5;0.08
'[15:50:08.752]';-0.475;0.075
'[15:50:08.756]';-0.45;0.075
'[15:50:08.760]';-0.395;0.07
'[15:50:08.764]';-0.29;0.06
'[15:50:08.768]';-0.19;0.08
'[15:50:08.772]';-0.17;0.085
'[15:50:08.776]';-0.23;0.155
'[15:50:08.780]';-0.44;0.25
'[15:50:08.784]';-0.76;0.3
'[15:50:08.788]';-1.24;0.085
'[15:50:08.792]';-1.765;-0.43
'[15:50:08.796]';-2.195;-1.075
'[15:50:08.800]';-2.575;-1.785
'[15:50:08.804]';-2.7;-2.685
'[15:50:08.808]';-2.64;-3.56
'[15:50:08.812]';-2.445;-4.17
'[15:50:08.816]';-2.415;-4.57
'[15:50:08.820]';-2.495;-4.82
'[15:50:08.824]';-2.53;-4.955
'[15:50:08.828]';-2.48;-4.995
'[15:50:08.832]';-2.405;-4.995
'[15:50:08.836]';-2.385;-4.905
'[15:50:08.840]';-2.4;-4.73
'[15:50:08.844]';-2.35;-4.64
'[15:50:08.848]';-2.31;-4.545
'[15:50:08.852]';-2.285;-4.415
'[15:50:08.856]';-2.155;-4.355
'[15:50:08.860]';-1.96;-4.205
'[15:50:08.864]';-1.655;-3.92
'[15:50:08.868]';-1.39;-3.62
'[15:50:08.872]';-1.205;-3.245
'[15:50:08.876]';-1.105;-2.825
'[15:50:08.880]';-0.995;-2.4
'[15:50:08.884]';-0.805;-1.915
'[15:50:08.888]';-0.605;-1.485
'[15:50:08.892]';-0.465;-1.14
'[15:50:08.896]';-0.34;-0.805
'[15:50:08.900]';-0.235;-0.56
'[15:50:08.904]';-0.2;-0.33
'[15:50:08.908]';-0.145;-0.13
'[15:50:08.912]';-0.105;0.05
'[15:50:08.916]';-0.085;0.205
'[15:50:08.920]';-0.06;0.36
'[15:50:08.924]';-0.05;0.495
'[15:50:08.928]';-0.03;0.61
'[15:50:08.932]';-0.01;0.66
'[15:50:08.936]';0.035;0.7
'[15:50:08.940]';0.025;0.69
'[15:50:08.944]';-0.005;0.7
'[15:50:08.948]';-0.005;0.745
'[15:50:08.952]';-0.005;0.785
'[15:50:08.956]';0.005;0.79
'[15:50:08.960]';0.045;0.795
'[15:50:08.964]';0.05;0.815
'[15:50:08.968]';0.075;0.825
'[15:50:08.972]';0.11;0.87
'[15:50:08.976]';0.12;0.85
'[15:50:08.980]';0.135;0.885
'[15:50:08.984]';0.105;0.93
'[15:50:08.988]';0.125;0.895
'[15:50:08.992]';0.145;0.88
'[15:50:08.996]';0.145;0.895
'[15:50:09.000]';0.155;0.965
'[15:50:09.004]';0.155;0.995
'[15:50:09.008]';0.155;1.025
'[15:50:09.012]';0.17;1.01
'[15:50:09.016]';0.195;1.01
'[15:50:09.020]';0.24;1.025
'[15:50:09.024]';0.205;1.055
'[15:50:09.028]';0.185;1.09
'[15:50:09.032]';0.22;1.135
'[15:50:09.036]';0.24;1.14
'[15:50:09.040]';0.255;1.14
'[15:50:09.044]';0.275;1.18
'[15:50:09.048]';0.27;1.2
'[15:50:09.052]';0.275;1.245
'[15:50:09.056]';0.295;1.29
'[15:50:09.060]';0.325;1.295
'[15:50:09.064]';0.35;1.295
'[15:50:09.068]';0.34;1.3
'[15:50:09.072]';0.34;1.32
'[15:50:09.076]';0.33;1.345
'[15:50:09.080]';0.335;1.375
'[15:50:09.084]';0.345;1.375
'[15:50:09.088]';0.345;1.395
'[15:50:09.092]';0.315;1.42
'[15:50:09.096]';0.295;1.43
'[15:50:09.100]';0.275;1.43
'[15:50:09.104]';0.26;1.42
'[15:50:09.108]';0.23;1.405
'[15:50:09.112]';0.205;1.395
'[15:50:09.116]';0.165;1.335
'[15:50:09.120]';0.125;1.295
'[15:50:09.124]';0.04;1.26
'[15:50:09.128]';-0.025;1.245
'[15:50:09.132]';-0.035;1.155
'[15:50:09.136]';-0.02;1.095
'[15:50:09.140]';-0.075;1.04
'[15:50:09.144]';-0.105;1.04
'[15:50:09.148]';-0.165;0.985
'[15:50:09.152]';-0.205;0.905
'[15:50:09.156]';-0.23;0.81
'[15:50:09.160]';-0.235;0.72
'[15:50:09.164]';-0.27;0.65
'[15:50:09.168]';-0.29;0.595
'[15:50:09.172]';-0.32;0.55
'[15:50:09.176]';-0.315;0.52
'[15:50:09.180]';-0.32;0.495
'[15:50:09.184]';-0.32;0.445
'[15:50:09.188]';-0.38;0.405
'[15:50:09.192]';-0.385;0.36
'[15:50:09.196]';-0.395;0.335
'[15:50:09.200]';-0.41;0.3
'[15:50:09.204]';-0.4;0.28
'[15:50:09.208]';-0.38;0.27
'[15:50:09.212]';-0.365;0.245
'[15:50:09.216]';-0.35;0.245
'[15:50:09.220]';-0.345;0.235
'[15:50:09.224]';-0.335;0.28
'[15:50:09.228]';-0.35;0.275
'[15:50:09.232]';-0.365;0.28
'[15:50:09.236]';-0.36;0.21
'[15:50:09.240]';-0.365;0.22
'[15:50:09.244]';-0.36;0.255
'[15:50:09.248]';-0.35;0.245
'[15:50:09.252]';-0.32;0.255
'[15:50:09.256]';-0.325;0.215
'[15:50:09.260]';-0.33;0.25
'[15:50:09.264]';-0.345;0.275
'[15:50:09.268]';-0.345;0.29
'[15:50:09.272]';-0.35;0.3
'[15:50:09.276]';-0.335;0.275
'[15:50:09.280]';-0.32;0.265
'[15:50:09.284]';-0.335;0.275
'[15:50:09.288]';-0.34;0.28
'[15:50:09.292]';-0.32;0.285
'[15:50:09.296]';-0.29;0.245
'[15:50:09.300]';-0.245;0.225
'[15:50:09.304]';-0.23;0.255
'[15:50:09.308]';-0.275;0.28
'[15:50:09.312]';-0.3;0.28
'[15:50:09.316]';-0.285;0.27
'[15:50:09.320]';-0.27;0.29
'[15:50:09.324]';-0.33;0.265
'[15:50:09.328]';-0.34;0.275
'[15:50:09.332]';-0.33;0.26
'[15:50:09.336]';-0.32;0.27
'[15:50:09.340]';-0.33;0.27
'[15:50:09.344]';-0.305;0.275
'[15:50:09.348]';-0.295;0.26
'[15:50:09.352]';-0.295;0.245
'[15:50:09.356]';-0.315;0.235
'[15:50:09.360]';-0.32;0.265
'[15:50:09.364]';-0.315;0.28
'[15:50:09.368]';-0.355;0.235
'[15:50:09.372]';-0.34;0.21
'[15:50:09.376]';-0.32;0.255
'[15:50:09.380]';-0.345;0.245
'[15:50:09.384]';-0.34;0.22
'[15:50:09.388]';-0.315;0.215
'[15:50:09.392]';-0.315;0.235
'[15:50:09.396]';-0.345;0.19
'[15:50:09.400]';-0.335;0.175
'[15:50:09.404]';-0.32;0.235
'[15:50:09.408]';-0.31;0.215
'[15:50:09.412]';-0.31;0.205
'[15:50:09.416]';-0.31;0.2
'[15:50:09.420]';-0.315;0.185
'[15:50:09.424]';-0.32;0.175
'[15:50:09.428]';-0.32;0.2
'[15:50:09.432]';-0.33;0.2
'[15:50:09.436]';-0.31;0.165
'[15:50:09.440]';-0.315;0.165
'[15:50:09.444]';-0.31;0.215
'[15:50:09.448]';-0.31;0.235
'[15:50:09.452]';-0.29;0.23
'[15:50:09.456]';-0.315;0.215
'[15:50:09.460]';-0.32;0.2
'[15:50:09.464]';-0.3;0.165
'[15:50:09.468]';-0.28;0.175
'[15:50:09.472]';-0.255;0.15
'[15:50:09.476]';-0.265;0.13
'[15:50:09.480]';-0.335;0.14
'[15:50:09.484]';-0.35;0.205
'[15:50:09.488]';-0.33;0.2
'[15:50:09.492]';-0.325;0.18
'[15:50:09.496]';-0.3;0.19
'[15:50:09.500]';-0.3;0.185
'[15:50:09.504]';-0.3;0.16
'[15:50:09.508]';-0.265;0.17
'[15:50:09.512]';-0.25;0.17
'[15:50:09.516]';-0.27;0.155
'[15:50:09.520]';-0.225;0.16
'[15:50:09.524]';-0.145;0.185
'[15:50:09.528]';-0.115;0.21
'[15:50:09.532]';-0.06;0.245
'[15:50:09.536]';-0.06;0.285
'[15:50:09.540]';-0.09;0.325
'[15:50:09.544]';-0.145;0.315
'[15:50:09.548]';-0.205;0.295
'[15:50:09.552]';-0.22;0.3
'[15:50:09.556]';-0.205;0.315
'[15:50:09.560]';-0.205;0.255
'[15:50:09.564]';-0.22;0.18
'[15:50:09.568]';-0.195;0.16
'[15:50:09.572]';-0.175;0.14
'[15:50:09.576]';-0.15;0.11
'[15:50:09.580]';-0.12;0.085
'[15:50:09.584]';-0.095;0.13
'[15:50:09.588]';-0.125;0.125
'[15:50:09.592]';-0.15;0.15
'[15:50:09.596]';-0.185;0.195
'[15:50:09.600]';-0.21;0.225
'[15:50:09.604]';-0.25;0.245
'[15:50:09.608]';-0.285;0.19
'[15:50:09.612]';-0.32;0.15
'[15:50:09.616]';-0.3;0.115
'[15:50:09.620]';-0.295;0.11
'[15:50:09.624]';-0.28;0.15
'[15:50:09.628]';-0.27;0.15
'[15:50:09.632]';-0.32;0.15
'[15:50:09.636]';-0.375;0.15
'[15:50:09.640]';-0.395;0.11
'[15:50:09.644]';-0.36;0.155
'[15:50:09.648]';-0.33;0.165
'[15:50:09.652]';-0.305;0.115
'[15:50:09.656]';-0.3;0.095
'[15:50:09.660]';-0.305;0.11
'[15:50:09.664]';-0.315;0.125
'[15:50:09.668]';-0.295;0.115
'[15:50:09.672]';-0.325;0.08
'[15:50:09.676]';-0.33;0.1
'[15:50:09.680]';-0.355;0.12
'[15:50:09.684]';-0.38;0.095
'[15:50:09.688]';-0.4;0.115
'[15:50:09.692]';-0.375;0.07
'[15:50:09.696]';-0.36;0.065
'[15:50:09.700]';-0.35;0.105
'[15:50:09.704]';-0.32;0.1
'[15:50:09.708]';-0.285;0.11
'[15:50:09.712]';-0.195;0.085
'[15:50:09.716]';-0.06;0.1
'[15:50:09.720]';-0.005;0.09
'[15:50:09.724]';-0.115;0.135
'[15:50:09.728]';-0.32;0.22
'[15:50:09.732]';-0.625;0.31
'[15:50:09.736]';-1.065;0.12
'[15:50:09.740]';-1.555;-0.38
'[15:50:09.744]';-1.96;-0.995
'[15:50:09.748]';-2.3;-1.775
'[15:50:09.752]';-2.44;-2.745
'[15:50:09.756]';-2.4;-3.625
'[15:50:09.760]';-2.3;-4.215
'[15:50:09.764]';-2.305;-4.6
'[15:50:09.768]';-2.38;-4.87
'[15:50:09.772]';-2.36;-5
'[15:50:09.776]';-2.325;-5.05
'[15:50:09.780]';-2.305;-4.995
'[15:50:09.784]';-2.325;-4.88
'[15:50:09.788]';-2.27;-4.705
'[15:50:09.792]';-2.165;-4.61
'[15:50:09.796]';-2.1;-4.515
'[15:50:09.800]';-1.98;-4.43
'[15:50:09.804]';-1.825;-4.3
'[15:50:09.808]';-1.56;-4.065
'[15:50:09.812]';-1.33;-3.755
'[15:50:09.816]';-1.19;-3.39
'[15:50:09.820]';-1.03;-2.985
'[15:50:09.824]';-0.88;-2.54
'[15:50:09.828]';-0.715;-2.075
'[15:50:09.832]';-0.47;-1.595
'[15:50:09.836]';-0.31;-1.205
'[15:50:09.840]';-0.22;-0.815
'[15:50:09.844]';-0.1;-0.495
'[15:50:09.848]';-0.035;-0.26
'[15:50:09.852]';-0.025;-0.08
'[15:50:09.856]';0.015;0.11
'[15:50:09.860]';0.05;0.29
'[15:50:09.864]';0.06;0.44
'[15:50:09.868]';0.05;0.59
'[15:50:09.872]';0.035;0.67
'[15:50:09.876]';0.075;0.735
'[15:50:09.880]';0.105;0.78
'[15:50:09.884]';0.12;0.77
'[15:50:09.888]';0.125;0.81
'[15:50:09.892]';0.155;0.86
'[15:50:09.896]';0.17;0.835
'[15:50:09.900]';0.19;0.855
'[15:50:09.904]';0.2;0.87
'[15:50:09.908]';0.205;0.89
'[15:50:09.912]';0.225;0.9
'[15:50:09.916]';0.255;0.895
'[15:50:09.920]';0.27;0.925
'[15:50:09.924]';0.305;0.95
'[15:50:09.928]';0.305;1.01
'[15:50:09.932]';0.3;1.01
'[15:50:09.936]';0.315;1.01
'[15:50:09.940]';0.315;1.025
'[15:50:09.944]';0.305;1.045
'[15:50:09.948]';0.305;1.065
'[15:50:09.952]';0.33;1.1
'[15:50:09.956]';0.35;1.085
'[15:50:09.960]';0.38;1.13
'[15:50:09.964]';0.375;1.14
'[15:50:09.968]';0.375;1.175
'[15:50:09.972]';0.36;1.2
'[15:50:09.976]';0.36;1.215
'[15:50:09.980]';0.4;1.235
'[15:50:09.984]';0.405;1.295
'[15:50:09.988]';0.39;1.315
'[15:50:09.992]';0.375;1.325
'[15:50:09.996]';0.39;1.335
'[15:50:10.000]';0.405;1.355
'[15:50:10.004]';0.45;1.4
'[15:50:10.008]';0.475;1.405
'[15:50:10.012]';0.48;1.43
'[15:50:10.016]';0.45;1.43
'[15:50:10.020]';0.45;1.47
'[15:50:10.024]';0.46;1.48
'[15:50:10.028]';0.44;1.49
'[15:50:10.032]';0.43;1.48
'[15:50:10.036]';0.405;1.475
'[15:50:10.040]';0.405;1.475
'[15:50:10.044]';0.38;1.485
'[15:50:10.048]';0.35;1.455
'[15:50:10.052]';0.315;1.45
'[15:50:10.056]';0.26;1.44
'[15:50:10.060]';0.23;1.35
'[15:50:10.064]';0.19;1.29
'[15:50:10.068]';0.14;1.235
'[15:50:10.072]';0.105;1.215
'[15:50:10.076]';0.09;1.18
'[15:50:10.080]';0.06;1.11
'[15:50:10.084]';0.02;1.03
'[15:50:10.088]';-0.03;0.935
'[15:50:10.092]';-0.08;0.875
'[15:50:10.096]';-0.11;0.8
'[15:50:10.100]';-0.14;0.725
'[15:50:10.104]';-0.16;0.65
'[15:50:10.108]';-0.17;0.595
'[15:50:10.112]';-0.165;0.55
'[15:50:10.116]';-0.185;0.485
'[15:50:10.120]';-0.185;0.455
'[15:50:10.124]';-0.185;0.435
'[15:50:10.128]';-0.18;0.395
'[15:50:10.132]';-0.21;0.355
'[15:50:10.136]';-0.215;0.36
'[15:50:10.140]';-0.225;0.3
'[15:50:10.144]';-0.205;0.315
'[15:50:10.148]';-0.215;0.315
'[15:50:10.152]';-0.205;0.325
'[15:50:10.156]';-0.18;0.33
'[15:50:10.160]';-0.17;0.335
'[15:50:10.164]';-0.185;0.31
'[15:50:10.168]';-0.195;0.295
'[15:50:10.172]';-0.19;0.315
'[15:50:10.176]';-0.175;0.295
'[15:50:10.180]';-0.165;0.285
'[15:50:10.184]';-0.145;0.275
'[15:50:10.188]';-0.145;0.295
'[15:50:10.192]';-0.145;0.325
'[15:50:10.196]';-0.16;0.325
'[15:50:10.200]';-0.195;0.325
'[15:50:10.204]';-0.18;0.315
'[15:50:10.208]';-0.16;0.32
'[15:50:10.212]';-0.17;0.355
'[15:50:10.216]';-0.175;0.385
'[15:50:10.220]';-0.17;0.385
'[15:50:10.224]';-0.155;0.36
'[15:50:10.228]';-0.12;0.36
'[15:50:10.232]';-0.12;0.375
'[15:50:10.236]';-0.12;0.38
'[15:50:10.240]';-0.115;0.39
'[15:50:10.244]';-0.075;0.375
'[15:50:10.248]';-0.095;0.385
'[15:50:10.252]';-0.1;0.4
'[15:50:10.256]';-0.125;0.36
'[15:50:10.260]';-0.115;0.345
'[15:50:10.264]';-0.12;0.34
'[15:50:10.268]';-0.115;0.355
'[15:50:10.272]';-0.1;0.345
'[15:50:10.276]';-0.075;0.35
'[15:50:10.280]';-0.075;0.335
'[15:50:10.284]';-0.1;0.325
'[15:50:10.288]';-0.105;0.365
'[15:50:10.292]';-0.13;0.345
'[15:50:10.296]';-0.11;0.295
'[15:50:10.300]';-0.115;0.285
'[15:50:10.304]';-0.115;0.26
'[15:50:10.308]';-0.095;0.29
'[15:50:10.312]';-0.1;0.325
'[15:50:10.316]';-0.075;0.315
'[15:50:10.320]';-0.055;0.275
'[15:50:10.324]';-0.065;0.23
'[15:50:10.328]';-0.07;0.255
'[15:50:10.332]';-0.11;0.285
'[15:50:10.336]';-0.105;0.335
'[15:50:10.340]';-0.105;0.29
'[15:50:10.344]';-0.105;0.25
'[15:50:10.348]';-0.115;0.235
'[15:50:10.352]';-0.095;0.22
'[15:50:10.356]';-0.095;0.205
'[15:50:10.360]';-0.11;0.22
'[15:50:10.364]';-0.12;0.23
'[15:50:10.368]';-0.12;0.25
'[15:50:10.372]';-0.14;0.225
'[15:50:10.376]';-0.145;0.245
'[15:50:10.380]';-0.115;0.26
'[15:50:10.384]';-0.125;0.235
'[15:50:10.388]';-0.11;0.225
'[15:50:10.392]';-0.115;0.225
'[15:50:10.396]';-0.12;0.195
'[15:50:10.400]';-0.125;0.21
'[15:50:10.404]';-0.115;0.225
'[15:50:10.408]';-0.125;0.24
'[15:50:10.412]';-0.115;0.23
'[15:50:10.416]';-0.115;0.235
'[15:50:10.420]';-0.1;0.22
'[15:50:10.424]';-0.135;0.23
'[15:50:10.428]';-0.135;0.21
'[15:50:10.432]';-0.115;0.23
'[15:50:10.436]';-0.13;0.23
'[15:50:10.440]';-0.135;0.18
'[15:50:10.444]';-0.135;0.16
'[15:50:10.448]';-0.12;0.18
'[15:50:10.452]';-0.1;0.165
'[15:50:10.456]';-0.08;0.195
'[15:50:10.460]';-0.105;0.215
'[15:50:10.464]';-0.125;0.22
'[15:50:10.468]';-0.11;0.22
'[15:50:10.472]';-0.055;0.225
'[15:50:10.476]';-0.055;0.165
'[15:50:10.480]';-0.05;0.115
'[15:50:10.484]';-0.035;0.19
'[15:50:10.488]';0.01;0.245
'[15:50:10.492]';0.03;0.27
'[15:50:10.496]';0.08;0.3
'[15:50:10.500]';0.095;0.345
'[15:50:10.504]';0.08;0.37
'[15:50:10.508]';0.045;0.365
'[15:50:10.512]';0.04;0.36
'[15:50:10.516]';0.015;0.35
'[15:50:10.520]';-0.015;0.29
'[15:50:10.524]';-0.04;0.315
'[15:50:10.528]';-0.06;0.275
'[15:50:10.532]';-0.035;0.25
'[15:50:10.536]';-0.015;0.225
'[15:50:10.540]';0.01;0.195
'[15:50:10.544]';0.015;0.16
'[15:50:10.548]';0.045;0.15
'[15:50:10.552]';0.07;0.175
'[15:50:10.556]';0.055;0.18
'[15:50:10.560]';0.025;0.205
'[15:50:10.564]';-0.02;0.235
'[15:50:10.568]';-0.075;0.26
'[15:50:10.572]';-0.135;0.26
'[15:50:10.576]';-0.135;0.235
'[15:50:10.580]';-0.18;0.185
'[15:50:10.584]';-0.19;0.18
'[15:50:10.588]';-0.135;0.165
'[15:50:10.592]';-0.165;0.16
'[15:50:10.596]';-0.19;0.175
'[15:50:10.600]';-0.175;0.16
'[15:50:10.604]';-0.185;0.15
'[15:50:10.608]';-0.205;0.13
'[15:50:10.612]';-0.18;0.13
'[15:50:10.616]';-0.18;0.15
'[15:50:10.620]';-0.165;0.175
'[15:50:10.624]';-0.175;0.185
'[15:50:10.628]';-0.16;0.16
'[15:50:10.632]';-0.18;0.14
'[15:50:10.636]';-0.185;0.17
'[15:50:10.640]';-0.18;0.2
'[15:50:10.644]';-0.195;0.18
'[15:50:10.648]';-0.21;0.16
'[15:50:10.652]';-0.18;0.15
'[15:50:10.656]';-0.195;0.14
'[15:50:10.660]';-0.19;0.145
'[15:50:10.664]';-0.175;0.135
'[15:50:10.668]';-0.115;0.12
'[15:50:10.672]';-0.02;0.125
'[15:50:10.676]';0.105;0.13
'[15:50:10.680]';0.175;0.145
'[15:50:10.684]';0.075;0.195
'[15:50:10.688]';-0.12;0.265
'[15:50:10.692]';-0.425;0.34
'[15:50:10.696]';-0.835;0.165
'[15:50:10.700]';-1.245;-0.365
'[15:50:10.704]';-1.61;-1.025
'[15:50:10.708]';-1.915;-1.895
'[15:50:10.712]';-2.05;-2.93
'[15:50:10.716]';-1.99;-3.83
'[15:50:10.720]';-1.875;-4.39
'[15:50:10.724]';-1.865;-4.735
'[15:50:10.728]';-1.925;-4.94
'[15:50:10.732]';-1.965;-5.055
'[15:50:10.736]';-1.985;-5.105
'[15:50:10.740]';-2.005;-5.06
'[15:50:10.744]';-2.03;-4.955
'[15:50:10.748]';-1.995;-4.85
'[15:50:10.752]';-1.9;-4.755
'[15:50:10.756]';-1.85;-4.655
'[15:50:10.760]';-1.79;-4.56
'[15:50:10.764]';-1.65;-4.445
'[15:50:10.768]';-1.39;-4.195
'[15:50:10.772]';-1.135;-3.865
'[15:50:10.776]';-0.93;-3.52
'[15:50:10.780]';-0.77;-3.145
'[15:50:10.784]';-0.685;-2.69
'[15:50:10.788]';-0.6;-2.095
'[15:50:10.792]';-0.42;-1.56
'[15:50:10.796]';-0.275;-1.165
'[15:50:10.800]';-0.13;-0.85
'[15:50:10.804]';-0.03;-0.58
'[15:50:10.808]';0.025;-0.34
'[15:50:10.812]';0.065;-0.115
'[15:50:10.816]';0.09;0.065
'[15:50:10.820]';0.11;0.25
'[15:50:10.824]';0.09;0.42
'[15:50:10.828]';0.13;0.555
'[15:50:10.832]';0.13;0.65
'[15:50:10.836]';0.115;0.72
'[15:50:10.840]';0.155;0.745
'[15:50:10.844]';0.185;0.76
'[15:50:10.848]';0.205;0.78
'[15:50:10.852]';0.21;0.835
'[15:50:10.856]';0.2;0.85
'[15:50:10.860]';0.195;0.85
'[15:50:10.864]';0.215;0.845
'[15:50:10.868]';0.195;0.89
'[15:50:10.872]';0.18;0.9
'[15:50:10.876]';0.22;0.925
'[15:50:10.880]';0.23;0.905
'[15:50:10.884]';0.28;0.91
'[15:50:10.888]';0.305;0.92
'[15:50:10.892]';0.295;0.945
'[15:50:10.896]';0.305;1.035
'[15:50:10.900]';0.31;1.045
'[15:50:10.904]';0.305;1.04
'[15:50:10.908]';0.32;1.035
'[15:50:10.912]';0.305;1.035
'[15:50:10.916]';0.315;1.065
'[15:50:10.920]';0.33;1.135
'[15:50:10.924]';0.36;1.135
'[15:50:10.928]';0.385;1.135
'[15:50:10.932]';0.425;1.125
'[15:50:10.936]';0.42;1.18
'[15:50:10.940]';0.425;1.235
'[15:50:10.944]';0.415;1.26
'[15:50:10.948]';0.415;1.27
'[15:50:10.952]';0.43;1.285
'[15:50:10.956]';0.44;1.32
'[15:50:10.960]';0.44;1.355
'[15:50:10.964]';0.45;1.36
'[15:50:10.968]';0.475;1.375
'[15:50:10.972]';0.5;1.375
'[15:50:10.976]';0.525;1.44
'[15:50:10.980]';0.485;1.46
'[15:50:10.984]';0.48;1.465
'[15:50:10.988]';0.48;1.48
'[15:50:10.992]';0.46;1.535
'[15:50:10.996]';0.435;1.565
'[15:50:11.000]';0.435;1.53
'[15:50:11.004]';0.445;1.52
'[15:50:11.008]';0.4;1.455
'[15:50:11.012]';0.37;1.44
'[15:50:11.016]';0.35;1.46
'[15:50:11.020]';0.315;1.43
'[15:50:11.024]';0.28;1.375
'[15:50:11.028]';0.22;1.315
'[15:50:11.032]';0.145;1.24
'[15:50:11.036]';0.115;1.245
'[15:50:11.040]';0.055;1.18
'[15:50:11.044]';0.03;1.09
'[15:50:11.048]';0;0.985
'[15:50:11.052]';-0.03;0.9
'[15:50:11.056]';-0.085;0.86
'[15:50:11.060]';-0.12;0.775
'[15:50:11.064]';-0.115;0.72
'[15:50:11.068]';-0.135;0.64
'[15:50:11.072]';-0.13;0.59
'[15:50:11.076]';-0.14;0.54
'[15:50:11.080]';-0.165;0.52
'[15:50:11.084]';-0.225;0.465
'[15:50:11.088]';-0.24;0.425
'[15:50:11.092]';-0.255;0.37
'[15:50:11.096]';-0.245;0.355
'[15:50:11.100]';-0.235;0.325
'[15:50:11.104]';-0.215;0.31
'[15:50:11.108]';-0.215;0.275
'[15:50:11.112]';-0.22;0.275
'[15:50:11.116]';-0.22;0.265
'[15:50:11.120]';-0.215;0.27
'[15:50:11.124]';-0.22;0.315
'[15:50:11.128]';-0.205;0.29
'[15:50:11.132]';-0.22;0.3
'[15:50:11.136]';-0.235;0.27
'[15:50:11.140]';-0.225;0.265
'[15:50:11.144]';-0.195;0.27
'[15:50:11.148]';-0.19;0.29
'[15:50:11.152]';-0.24;0.285
'[15:50:11.156]';-0.265;0.315
'[15:50:11.160]';-0.23;0.295
'[15:50:11.164]';-0.23;0.285
'[15:50:11.168]';-0.205;0.29
'[15:50:11.172]';-0.225;0.28
'[15:50:11.176]';-0.215;0.335
'[15:50:11.180]';-0.205;0.375
'[15:50:11.184]';-0.23;0.335
'[15:50:11.188]';-0.24;0.33
'[15:50:11.192]';-0.25;0.295
'[15:50:11.196]';-0.195;0.315
'[15:50:11.200]';-0.185;0.305
'[15:50:11.204]';-0.175;0.29
'[15:50:11.208]';-0.16;0.295
'[15:50:11.212]';-0.18;0.31
'[15:50:11.216]';-0.18;0.32
'[15:50:11.220]';-0.17;0.315
'[15:50:11.224]';-0.145;0.325
'[15:50:11.228]';-0.14;0.335
'[15:50:11.232]';-0.165;0.315
'[15:50:11.236]';-0.155;0.31
'[15:50:11.240]';-0.145;0.27
'[15:50:11.244]';-0.16;0.28
'[15:50:11.248]';-0.18;0.305
'[15:50:11.252]';-0.195;0.285
'[15:50:11.256]';-0.18;0.29
'[15:50:11.260]';-0.18;0.295
'[15:50:11.264]';-0.2;0.275
'[15:50:11.268]';-0.2;0.275
'[15:50:11.272]';-0.19;0.255
'[15:50:11.276]';-0.215;0.25
'[15:50:11.280]';-0.215;0.245
'[15:50:11.284]';-0.245;0.255
'[15:50:11.288]';-0.195;0.255
'[15:50:11.292]';-0.195;0.235
'[15:50:11.296]';-0.185;0.205
'[15:50:11.300]';-0.175;0.235
'[15:50:11.304]';-0.205;0.285
'[15:50:11.308]';-0.2;0.285
'[15:50:11.312]';-0.19;0.215
'[15:50:11.316]';-0.2;0.22
'[15:50:11.320]';-0.225;0.215
'[15:50:11.324]';-0.21;0.195
'[15:50:11.328]';-0.195;0.2
'[15:50:11.332]';-0.205;0.225
'[15:50:11.336]';-0.21;0.195
'[15:50:11.340]';-0.265;0.19
'[15:50:11.344]';-0.235;0.17
'[15:50:11.348]';-0.25;0.185
'[15:50:11.352]';-0.255;0.17
'[15:50:11.356]';-0.235;0.135
'[15:50:11.360]';-0.205;0.16
'[15:50:11.364]';-0.2;0.19
'[15:50:11.368]';-0.215;0.19
'[15:50:11.372]';-0.23;0.175
'[15:50:11.376]';-0.205;0.19
'[15:50:11.380]';-0.205;0.21
'[15:50:11.384]';-0.225;0.215
'[15:50:11.388]';-0.21;0.21
'[15:50:11.392]';-0.195;0.175
'[15:50:11.396]';-0.205;0.175
'[15:50:11.400]';-0.215;0.175
'[15:50:11.404]';-0.22;0.18
'[15:50:11.408]';-0.24;0.18
'[15:50:11.412]';-0.23;0.17
'[15:50:11.416]';-0.25;0.15
'[15:50:11.420]';-0.225;0.165
'[15:50:11.424]';-0.225;0.145
'[15:50:11.428]';-0.195;0.165
'[15:50:11.432]';-0.2;0.175
'[15:50:11.436]';-0.17;0.17
'[15:50:11.440]';-0.13;0.175
'[15:50:11.444]';-0.08;0.215
'[15:50:11.448]';-0.02;0.215
'[15:50:11.452]';-0.01;0.26
'[15:50:11.456]';0;0.265
'[15:50:11.460]';-0.035;0.255
'[15:50:11.464]';-0.09;0.27
'[15:50:11.468]';-0.11;0.305
'[15:50:11.472]';-0.13;0.33
'[15:50:11.476]';-0.155;0.285
'[15:50:11.480]';-0.16;0.24
'[15:50:11.484]';-0.155;0.24
'[15:50:11.488]';-0.14;0.22
'[15:50:11.492]';-0.13;0.185
'[15:50:11.496]';-0.085;0.16
'[15:50:11.500]';-0.08;0.155
'[15:50:11.504]';-0.075;0.095
'[15:50:11.508]';-0.03;0.105
'[15:50:11.512]';-0.065;0.185
'[15:50:11.516]';-0.11;0.205
'[15:50:11.520]';-0.18;0.2
'[15:50:11.524]';-0.2;0.255
'[15:50:11.528]';-0.27;0.245
'[15:50:11.532]';-0.27;0.225
'[15:50:11.536]';-0.28;0.195
'[15:50:11.540]';-0.28;0.17
'[15:50:11.544]';-0.295;0.16
'[15:50:11.548]';-0.31;0.13
'[15:50:11.552]';-0.28;0.13
'[15:50:11.556]';-0.265;0.11
'[15:50:11.560]';-0.3;0.06
'[15:50:11.564]';-0.315;0.08
'[15:50:11.568]';-0.3;0.13
'[15:50:11.572]';-0.32;0.185
'[15:50:11.576]';-0.305;0.19
'[15:50:11.580]';-0.31;0.155
'[15:50:11.584]';-0.33;0.115
'[15:50:11.588]';-0.325;0.11
'[15:50:11.592]';-0.305;0.085
'[15:50:11.596]';-0.295;0.08
'[15:50:11.600]';-0.285;0.11
'[15:50:11.604]';-0.31;0.115
'[15:50:11.608]';-0.32;0.12
'[15:50:11.612]';-0.29;0.105
'[15:50:11.616]';-0.285;0.08
'[15:50:11.620]';-0.28;0.115
'[15:50:11.624]';-0.295;0.155
'[15:50:11.628]';-0.315;0.14
'[15:50:11.632]';-0.275;0.115
'[15:50:11.636]';-0.17;0.1
'[15:50:11.640]';-0.03;0.075
'[15:50:11.644]';0.015;0.115
'[15:50:11.648]';-0.1;0.19
'[15:50:11.652]';-0.29;0.275
'[15:50:11.656]';-0.56;0.315
'[15:50:11.660]';-1.01;0.1
'[15:50:11.664]';-1.48;-0.42
'[15:50:11.668]';-1.875;-1.04
'[15:50:11.672]';-2.23;-1.79
'[15:50:11.676]';-2.385;-2.67
'[15:50:11.680]';-2.365;-3.505
'[15:50:11.684]';-2.3;-4.115
'[15:50:11.688]';-2.27;-4.52
'[15:50:11.692]';-2.28;-4.805
'[15:50:11.696]';-2.25;-4.935
'[15:50:11.700]';-2.18;-4.985
'[15:50:11.704]';-2.14;-4.96
'[15:50:11.708]';-2.09;-4.855
'[15:50:11.712]';-2.05;-4.725
'[15:50:11.716]';-1.97;-4.595
'[15:50:11.720]';-1.915;-4.5
'[15:50:11.724]';-1.91;-4.38
'[15:50:11.728]';-1.835;-4.245
'[15:50:11.732]';-1.605;-4.07
'[15:50:11.736]';-1.3;-3.795
'[15:50:11.740]';-1.1;-3.475
'[15:50:11.744]';-0.98;-3.115
'[15:50:11.748]';-0.84;-2.72
'[15:50:11.752]';-0.725;-2.235
'[15:50:11.756]';-0.535;-1.73
'[15:50:11.760]';-0.345;-1.355
'[15:50:11.764]';-0.21;-1
'[15:50:11.768]';-0.11;-0.725
'[15:50:11.772]';-0.045;-0.475
'[15:50:11.776]';0;-0.29
'[15:50:11.780]';0.03;-0.085
'[15:50:11.784]';0.05;0.105
'[15:50:11.788]';0.105;0.25
'[15:50:11.792]';0.115;0.39
'[15:50:11.796]';0.1;0.52
'[15:50:11.800]';0.095;0.625
'[15:50:11.804]';0.115;0.7
'[15:50:11.808]';0.13;0.755
'[15:50:11.812]';0.135;0.77
'[15:50:11.816]';0.165;0.755
'[15:50:11.820]';0.17;0.78
'[15:50:11.824]';0.175;0.795
'[15:50:11.828]';0.2;0.805
'[15:50:11.832]';0.23;0.77
'[15:50:11.836]';0.24;0.795
'[15:50:11.840]';0.275;0.86
'[15:50:11.844]';0.265;0.91
'[15:50:11.848]';0.275;0.905
'[15:50:11.852]';0.28;0.92
'[15:50:11.856]';0.295;0.89
'[15:50:11.860]';0.285;0.92
'[15:50:11.864]';0.275;0.925
'[15:50:11.868]';0.27;0.93
'[15:50:11.872]';0.28;0.93
'[15:50:11.876]';0.32;0.975
'[15:50:11.880]';0.32;0.995
'[15:50:11.884]';0.34;1.025
'[15:50:11.888]';0.335;1.06
'[15:50:11.892]';0.355;1.07
'[15:50:11.896]';0.375;1.09
'[15:50:11.900]';0.4;1.115
'[15:50:11.904]';0.395;1.14
'[15:50:11.908]';0.375;1.165
'[15:50:11.912]';0.375;1.18
'[15:50:11.916]';0.415;1.17
'[15:50:11.920]';0.395;1.205
'[15:50:11.924]';0.425;1.265
'[15:50:11.928]';0.44;1.3
'[15:50:11.932]';0.455;1.335
'[15:50:11.936]';0.45;1.37
'[15:50:11.940]';0.475;1.375
'[15:50:11.944]';0.48;1.36
'[15:50:11.948]';0.485;1.405
'[15:50:11.952]';0.475;1.405
'[15:50:11.956]';0.46;1.455
'[15:50:11.960]';0.465;1.465
'[15:50:11.964]';0.495;1.455
'[15:50:11.968]';0.49;1.465
'[15:50:11.972]';0.455;1.47
'[15:50:11.976]';0.425;1.465
'[15:50:11.980]';0.405;1.47
'[15:50:11.984]';0.395;1.485
'[15:50:11.988]';0.37;1.48
'[15:50:11.992]';0.32;1.445
'[15:50:11.996]';0.33;1.385
'[15:50:12.000]';0.31;1.335
'[15:50:12.004]';0.24;1.295
'[15:50:12.008]';0.165;1.225
'[15:50:12.012]';0.1;1.185
'[15:50:12.016]';0.07;1.12
'[15:50:12.020]';0.08;1.07
'[15:50:12.024]';0.07;1
'[15:50:12.028]';0.025;0.94
'[15:50:12.032]';-0.005;0.865
'[15:50:12.036]';-0.03;0.82
'[15:50:12.040]';-0.045;0.745
'[15:50:12.044]';-0.08;0.7
'[15:50:12.048]';-0.085;0.615
'[15:50:12.052]';-0.07;0.565
'[15:50:12.056]';-0.1;0.475
'[15:50:12.060]';-0.095;0.44
'[15:50:12.064]';-0.095;0.405
'[15:50:12.068]';-0.095;0.41
'[15:50:12.072]';-0.12;0.4
'[15:50:12.076]';-0.145;0.395
'[15:50:12.080]';-0.16;0.36
'[15:50:12.084]';-0.14;0.315
'[15:50:12.088]';-0.145;0.295
'[15:50:12.092]';-0.125;0.295
'[15:50:12.096]';-0.105;0.27
'[15:50:12.100]';-0.1;0.26
'[15:50:12.104]';-0.125;0.285
'[15:50:12.108]';-0.11;0.28
'[15:50:12.112]';-0.125;0.265
'[15:50:12.116]';-0.14;0.27
'[15:50:12.120]';-0.15;0.255
'[15:50:12.124]';-0.095;0.25
'[15:50:12.128]';-0.1;0.255
'[15:50:12.132]';-0.125;0.295
'[15:50:12.136]';-0.11;0.265
'[15:50:12.140]';-0.1;0.24
'[15:50:12.144]';-0.125;0.26
'[15:50:12.148]';-0.135;0.24
'[15:50:12.152]';-0.105;0.255
'[15:50:12.156]';-0.09;0.255
'[15:50:12.160]';-0.1;0.275
'[15:50:12.164]';-0.08;0.275
'[15:50:12.168]';-0.08;0.29
'[15:50:12.172]';-0.07;0.28
'[15:50:12.176]';-0.06;0.315
'[15:50:12.180]';-0.06;0.305
'[15:50:12.184]';-0.05;0.28
'[15:50:12.188]';-0.04;0.31
'[15:50:12.192]';-0.035;0.34
'[15:50:12.196]';-0.06;0.31
'[15:50:12.200]';-0.045;0.29
'[15:50:12.204]';0;0.3
'[15:50:12.208]';-0.01;0.345
'[15:50:12.212]';-0.01;0.33
'[15:50:12.216]';-0.025;0.335
'[15:50:12.220]';-0.02;0.295
'[15:50:12.224]';-0.025;0.285
'[15:50:12.228]';-0.04;0.315
'[15:50:12.232]';-0.03;0.35
'[15:50:12.236]';-0.045;0.33
'[15:50:12.240]';-0.04;0.32
'[15:50:12.244]';-0.04;0.29
'[15:50:12.248]';-0.03;0.255
'[15:50:12.252]';-0.025;0.28
'[15:50:12.256]';-0.035;0.29
'[15:50:12.260]';-0.03;0.3
'[15:50:12.264]';-0.01;0.29
'[15:50:12.268]';-0.025;0.255
'[15:50:12.272]';-0.045;0.255
'[15:50:12.276]';-0.03;0.255
'[15:50:12.280]';0;0.255
'[15:50:12.284]';0.005;0.25
'[15:50:12.288]';-0.04;0.235
'[15:50:12.292]';-0.115;0.185
'[15:50:12.296]';-0.11;0.22
'[15:50:12.300]';-0.075;0.25
'[15:50:12.304]';-0.07;0.27
'[15:50:12.308]';-0.085;0.225
'[15:50:12.312]';-0.105;0.24
'[15:50:12.316]';-0.08;0.215
'[15:50:12.320]';-0.07;0.24
'[15:50:12.324]';-0.06;0.235
'[15:50:12.328]';-0.075;0.19
'[15:50:12.332]';-0.085;0.18
'[15:50:12.336]';-0.08;0.215
'[15:50:12.340]';-0.06;0.245
'[15:50:12.344]';-0.055;0.215
'[15:50:12.348]';-0.065;0.215
'[15:50:12.352]';-0.075;0.2
'[15:50:12.356]';-0.07;0.19
'[15:50:12.360]';-0.085;0.2
'[15:50:12.364]';-0.08;0.18
'[15:50:12.368]';-0.135;0.175
'[15:50:12.372]';-0.125;0.175
'[15:50:12.376]';-0.105;0.22
'[15:50:12.380]';-0.085;0.21
'[15:50:12.384]';-0.07;0.18
'[15:50:12.388]';-0.065;0.185
'[15:50:12.392]';-0.065;0.175
'[15:50:12.396]';-0.105;0.16
'[15:50:12.400]';-0.115;0.195
'[15:50:12.404]';-0.115;0.175
'[15:50:12.408]';-0.135;0.18
'[15:50:12.412]';-0.11;0.18
'[15:50:12.416]';-0.08;0.2
'[15:50:12.420]';-0.075;0.175
'[15:50:12.424]';-0.085;0.15
'[15:50:12.428]';-0.09;0.155
'[15:50:12.432]';-0.065;0.155
'[15:50:12.436]';-0.035;0.22
'[15:50:12.440]';-0.005;0.245
'[15:50:12.444]';0.04;0.205
'[15:50:12.448]';0.07;0.22
'[15:50:12.452]';0.115;0.225
'[15:50:12.456]';0.105;0.25
'[15:50:12.460]';0.095;0.26
'[15:50:12.464]';0.11;0.305
'[15:50:12.468]';0.095;0.325
'[15:50:12.472]';0.05;0.325
'[15:50:12.476]';0.03;0.31
'[15:50:12.480]';0.025;0.3
'[15:50:12.484]';-0.005;0.275
'[15:50:12.488]';-0.02;0.26
'[15:50:12.492]';-0.01;0.25
'[15:50:12.496]';-0.035;0.2
'[15:50:12.500]';-0.01;0.17
'[15:50:12.504]';0.01;0.145
'[15:50:12.508]';0.04;0.125
'[15:50:12.512]';0.075;0.11
'[15:50:12.516]';0.08;0.13
'[15:50:12.520]';0.075;0.155
'[15:50:12.524]';0.035;0.185
'[15:50:12.528]';-0.01;0.225
'[15:50:12.532]';-0.065;0.255
'[15:50:12.536]';-0.105;0.27
'[15:50:12.540]';-0.115;0.245
'[15:50:12.544]';-0.14;0.185
'[15:50:12.548]';-0.14;0.155
'[15:50:12.552]';-0.115;0.115
'[15:50:12.556]';-0.12;0.115
'[15:50:12.560]';-0.12;0.1
'[15:50:12.564]';-0.16;0.165
'[15:50:12.568]';-0.18;0.165
'[15:50:12.572]';-0.17;0.095
'[15:50:12.576]';-0.16;0.075
'[15:50:12.580]';-0.14;0.105
'[15:50:12.584]';-0.14;0.16
'[15:50:12.588]';-0.14;0.175
'[15:50:12.592]';-0.155;0.14
'[15:50:12.596]';-0.175;0.12
'[15:50:12.600]';-0.165;0.13
'[15:50:12.604]';-0.155;0.1
'[15:50:12.608]';-0.17;0.11
'[15:50:12.612]';-0.16;0.095
'[15:50:12.616]';-0.145;0.095
'[15:50:12.620]';-0.14;0.105
'[15:50:12.624]';-0.175;0.15
'[15:50:12.628]';-0.185;0.135
'[15:50:12.632]';-0.17;0.09
'[15:50:12.636]';-0.14;0.1
'[15:50:12.640]';-0.05;0.1
'[15:50:12.644]';0.125;0.09
'[15:50:12.648]';0.2;0.13
'[15:50:12.652]';0.115;0.19
'[15:50:12.656]';-0.03;0.225
'[15:50:12.660]';-0.245;0.28
'[15:50:12.664]';-0.585;0.195
'[15:50:12.668]';-1.03;-0.2
'[15:50:12.672]';-1.41;-0.84
'[15:50:12.676]';-1.73;-1.63
'[15:50:12.680]';-1.945;-2.555
'[15:50:12.684]';-1.97;-3.485
'[15:50:12.688]';-1.88;-4.16
'[15:50:12.692]';-1.785;-4.58
'[15:50:12.696]';-1.84;-4.86
'[15:50:12.700]';-1.92;-5.015
'[15:50:12.704]';-1.915;-5.09
'[15:50:12.708]';-1.935;-5.095
'[15:50:12.712]';-1.975;-5.04
'[15:50:12.716]';-2.01;-4.935
'[15:50:12.720]';-1.945;-4.815
'[15:50:12.724]';-1.85;-4.745
'[15:50:12.728]';-1.825;-4.66
'[15:50:12.732]';-1.765;-4.555
'[15:50:12.736]';-1.55;-4.42
'[15:50:12.740]';-1.305;-4.2
'[15:50:12.744]';-1.09;-3.9
'[15:50:12.748]';-0.93;-3.565
'[15:50:12.752]';-0.82;-3.165
'[15:50:12.756]';-0.715;-2.655
'[15:50:12.760]';-0.57;-2.145
'[15:50:12.764]';-0.38;-1.705
'[15:50:12.768]';-0.215;-1.29
'[15:50:12.772]';-0.105;-0.9
'[15:50:12.776]';0.01;-0.605
'[15:50:12.780]';0.04;-0.4
'[15:50:12.784]';0.075;-0.22
'[15:50:12.788]';0.1;-0.025
'[15:50:12.792]';0.115;0.175
'[15:50:12.796]';0.11;0.33
'[15:50:12.800]';0.14;0.465
'[15:50:12.804]';0.185;0.575
'[15:50:12.808]';0.185;0.655
'[15:50:12.812]';0.205;0.735
'[15:50:12.816]';0.175;0.755
'[15:50:12.820]';0.205;0.765
'[15:50:12.824]';0.23;0.77
'[15:50:12.828]';0.225;0.78
'[15:50:12.832]';0.225;0.78
'[15:50:12.836]';0.24;0.845
'[15:50:12.840]';0.255;0.825
'[15:50:12.844]';0.295;0.84
'[15:50:12.848]';0.315;0.875
'[15:50:12.852]';0.325;0.89
'[15:50:12.856]';0.305;0.91
'[15:50:12.860]';0.315;0.92
'[15:50:12.864]';0.33;0.97
'[15:50:12.868]';0.335;0.965
'[15:50:12.872]';0.35;0.955
'[15:50:12.876]';0.35;0.97
'[15:50:12.880]';0.4;0.975
'[15:50:12.884]';0.375;1.03
'[15:50:12.888]';0.39;1.06
'[15:50:12.892]';0.395;1.065
'[15:50:12.896]';0.42;1.075
'[15:50:12.900]';0.41;1.115
'[15:50:12.904]';0.415;1.12
'[15:50:12.908]';0.42;1.16
'[15:50:12.912]';0.445;1.19
'[15:50:12.916]';0.445;1.23
'[15:50:12.920]';0.44;1.24
'[15:50:12.924]';0.435;1.255
'[15:50:12.928]';0.47;1.27
'[15:50:12.932]';0.49;1.29
'[15:50:12.936]';0.53;1.325
'[15:50:12.940]';0.53;1.355
'[15:50:12.944]';0.525;1.365
'[15:50:12.948]';0.56;1.385
'[15:50:12.952]';0.515;1.41
'[15:50:12.956]';0.505;1.455
'[15:50:12.960]';0.525;1.44
'[15:50:12.964]';0.54;1.49
'[15:50:12.968]';0.515;1.535
'[15:50:12.972]';0.515;1.5
'[15:50:12.976]';0.52;1.495
'[15:50:12.980]';0.505;1.505
'[15:50:12.984]';0.485;1.51
'[15:50:12.988]';0.44;1.545
'[15:50:12.992]';0.385;1.5
'[15:50:12.996]';0.37;1.465
'[15:50:13.000]';0.32;1.42
'[15:50:13.004]';0.29;1.375
'[15:50:13.008]';0.25;1.35
'[15:50:13.012]';0.215;1.285
'[15:50:13.016]';0.145;1.22
'[15:50:13.020]';0.13;1.16
'[15:50:13.024]';0.095;1.075
'[15:50:13.028]';0.065;0.995
'[15:50:13.032]';0.005;0.92
'[15:50:13.036]';-0.02;0.885
'[15:50:13.040]';-0.05;0.84
'[15:50:13.044]';-0.06;0.735
'[15:50:13.048]';-0.115;0.69
'[15:50:13.052]';-0.13;0.62
'[15:50:13.056]';-0.145;0.54
'[15:50:13.060]';-0.14;0.485
'[15:50:13.064]';-0.17;0.45
'[15:50:13.068]';-0.175;0.43
'[15:50:13.072]';-0.16;0.38
'[15:50:13.076]';-0.165;0.34
'[15:50:13.080]';-0.185;0.32
'[15:50:13.084]';-0.2;0.315
'[15:50:13.088]';-0.2;0.315
'[15:50:13.092]';-0.2;0.295
'[15:50:13.096]';-0.205;0.29
'[15:50:13.100]';-0.19;0.285
'[15:50:13.104]';-0.19;0.255
'[15:50:13.108]';-0.17;0.22
'[15:50:13.112]';-0.2;0.225
'[15:50:13.116]';-0.175;0.255
'[15:50:13.120]';-0.185;0.245
'[15:50:13.124]';-0.2;0.29
'[15:50:13.128]';-0.175;0.3
'[15:50:13.132]';-0.2;0.27
'[15:50:13.136]';-0.205;0.265
'[15:50:13.140]';-0.185;0.23
'[15:50:13.144]';-0.175;0.24
'[15:50:13.148]';-0.195;0.265
'[15:50:13.152]';-0.185;0.295
'[15:50:13.156]';-0.16;0.31
'[15:50:13.160]';-0.125;0.28
'[15:50:13.164]';-0.1;0.245
'[15:50:13.168]';-0.13;0.235
'[15:50:13.172]';-0.145;0.255
'[15:50:13.176]';-0.14;0.265
'[15:50:13.180]';-0.155;0.315
'[15:50:13.184]';-0.155;0.33
'[15:50:13.188]';-0.17;0.28
'[15:50:13.192]';-0.18;0.265
'[15:50:13.196]';-0.2;0.29
'[15:50:13.200]';-0.16;0.255
'[15:50:13.204]';-0.15;0.245
'[15:50:13.208]';-0.125;0.255
'[15:50:13.212]';-0.12;0.29
'[15:50:13.216]';-0.13;0.315
'[15:50:13.220]';-0.13;0.29
'[15:50:13.224]';-0.12;0.26
'[15:50:13.228]';-0.11;0.28
'[15:50:13.232]';-0.125;0.26
'[15:50:13.236]';-0.125;0.295
'[15:50:13.240]';-0.11;0.29
'[15:50:13.244]';-0.115;0.245
'[15:50:13.248]';-0.115;0.24
'[15:50:13.252]';-0.12;0.26
'[15:50:13.256]';-0.145;0.24
'[15:50:13.260]';-0.14;0.255
'[15:50:13.264]';-0.115;0.25
'[15:50:13.268]';-0.115;0.25
'[15:50:13.272]';-0.155;0.26
'[15:50:13.276]';-0.17;0.28
'[15:50:13.280]';-0.175;0.26
'[15:50:13.284]';-0.2;0.24
'[15:50:13.288]';-0.18;0.22
'[15:50:13.292]';-0.17;0.21
'[15:50:13.296]';-0.17;0.195
'[15:50:13.300]';-0.165;0.21
'[15:50:13.304]';-0.17;0.24
'[15:50:13.308]';-0.16;0.23
'[15:50:13.312]';-0.2;0.22
'[15:50:13.316]';-0.18;0.21
'[15:50:13.320]';-0.18;0.235
'[15:50:13.324]';-0.18;0.195
'[15:50:13.328]';-0.18;0.21
'[15:50:13.332]';-0.2;0.23
'[15:50:13.336]';-0.22;0.255
'[15:50:13.340]';-0.2;0.21
'[15:50:13.344]';-0.205;0.215
'[15:50:13.348]';-0.215;0.19
'[15:50:13.352]';-0.19;0.185
'[15:50:13.356]';-0.195;0.185
'[15:50:13.360]';-0.215;0.175
'[15:50:13.364]';-0.21;0.165
'[15:50:13.368]';-0.22;0.17
'[15:50:13.372]';-0.22;0.165
'[15:50:13.376]';-0.22;0.18
'[15:50:13.380]';-0.25;0.155
'[15:50:13.384]';-0.25;0.185
'[15:50:13.388]';-0.225;0.215
'[15:50:13.392]';-0.24;0.175
'[15:50:13.396]';-0.235;0.155
'[15:50:13.400]';-0.235;0.185
'[15:50:13.404]';-0.225;0.195
'[15:50:13.408]';-0.24;0.195
'[15:50:13.412]';-0.26;0.185
'[15:50:13.416]';-0.25;0.17
'[15:50:13.420]';-0.245;0.17
'[15:50:13.424]';-0.215;0.165
'[15:50:13.428]';-0.16;0.145
'[15:50:13.432]';-0.145;0.14
'[15:50:13.436]';-0.13;0.18
'[15:50:13.440]';-0.11;0.205
'[15:50:13.444]';-0.065;0.2
'[15:50:13.448]';-0.005;0.265
'[15:50:13.452]';0.04;0.33
'[15:50:13.456]';0.025;0.355
'[15:50:13.460]';-0.005;0.37
'[15:50:13.464]';-0.025;0.365
'[15:50:13.468]';-0.045;0.375
'[15:50:13.472]';-0.08;0.35
'[15:50:13.476]';-0.1;0.305
'[15:50:13.480]';-0.13;0.265
'[15:50:13.484]';-0.15;0.23
'[15:50:13.488]';-0.155;0.215
'[15:50:13.492]';-0.12;0.17
'[15:50:13.496]';-0.08;0.165
'[15:50:13.500]';-0.06;0.18
'[15:50:13.504]';-0.03;0.145
'[15:50:13.508]';-0.04;0.14
'[15:50:13.512]';-0.055;0.185
'[15:50:13.516]';-0.105;0.18
'[15:50:13.520]';-0.14;0.195
'[15:50:13.524]';-0.18;0.205
'[15:50:13.528]';-0.235;0.235
'[15:50:13.532]';-0.245;0.21
'[15:50:13.536]';-0.265;0.185
'[15:50:13.540]';-0.24;0.16
'[15:50:13.544]';-0.27;0.135
'[15:50:13.548]';-0.28;0.13
'[15:50:13.552]';-0.295;0.15
'[15:50:13.556]';-0.29;0.16
'[15:50:13.560]';-0.29;0.135
'[15:50:13.564]';-0.28;0.075
'[15:50:13.568]';-0.23;0.1
'[15:50:13.572]';-0.255;0.12
'[15:50:13.576]';-0.285;0.155
'[15:50:13.580]';-0.275;0.155
'[15:50:13.584]';-0.29;0.16
'[15:50:13.588]';-0.345;0.155
'[15:50:13.592]';-0.345;0.125
'[15:50:13.596]';-0.33;0.13
'[15:50:13.600]';-0.31;0.13
'[15:50:13.604]';-0.32;0.115
'[15:50:13.608]';-0.305;0.12
'[15:50:13.612]';-0.32;0.1
'[15:50:13.616]';-0.265;0.095
'[15:50:13.620]';-0.215;0.09
'[15:50:13.624]';-0.185;0.11
'[15:50:13.628]';-0.145;0.08
'[15:50:13.632]';-0.085;0.1
'[15:50:13.636]';0;0.085
'[15:50:13.640]';-0.01;0.105
'[15:50:13.644]';-0.2;0.19
'[15:50:13.648]';-0.48;0.29
'[15:50:13.652]';-0.86;0.21
'[15:50:13.656]';-1.31;-0.21
'[15:50:13.660]';-1.73;-0.85
'[15:50:13.664]';-2.1;-1.665
'[15:50:13.668]';-2.34;-2.67
'[15:50:13.672]';-2.36;-3.6
'[15:50:13.676]';-2.25;-4.255
'[15:50:13.680]';-2.2;-4.655
'[15:50:13.684]';-2.265;-4.92
'[15:50:13.688]';-2.305;-5.04
'[15:50:13.692]';-2.245;-5.11
'[15:50:13.696]';-2.16;-5.105
'[15:50:13.700]';-2.21;-5.005
'[15:50:13.704]';-2.26;-4.925
'[15:50:13.708]';-2.2;-4.79
'[15:50:13.712]';-2.125;-4.685
'[15:50:13.716]';-2.115;-4.615
'[15:50:13.720]';-2.06;-4.53
'[15:50:13.724]';-1.875;-4.33
'[15:50:13.728]';-1.6;-4.055
'[15:50:13.732]';-1.355;-3.75
'[15:50:13.736]';-1.19;-3.4
'[15:50:13.740]';-1.03;-2.96
'[15:50:13.744]';-0.8;-2.44
'[15:50:13.748]';-0.525;-1.87
'[15:50:13.752]';-0.36;-1.365
'[15:50:13.756]';-0.305;-0.975
'[15:50:13.760]';-0.215;-0.7
'[15:50:13.764]';-0.15;-0.44
'[15:50:13.768]';-0.12;-0.215
'[15:50:13.772]';-0.105;-0.03
'[15:50:13.776]';-0.04;0.14
'[15:50:13.780]';-0.015;0.275
'[15:50:13.784]';0.005;0.41
'[15:50:13.788]';0.045;0.545
'[15:50:13.792]';0.055;0.64
'[15:50:13.796]';0.085;0.73
'[15:50:13.800]';0.12;0.735
'[15:50:13.804]';0.105;0.755
'[15:50:13.808]';0.09;0.79
'[15:50:13.812]';0.085;0.805
'[15:50:13.816]';0.095;0.8
'[15:50:13.820]';0.11;0.815
'[15:50:13.824]';0.105;0.86
'[15:50:13.828]';0.13;0.875
'[15:50:13.832]';0.17;0.855
'[15:50:13.836]';0.215;0.845
'[15:50:13.840]';0.235;0.86
'[15:50:13.844]';0.24;0.905
'[15:50:13.848]';0.27;0.955
'[15:50:13.852]';0.31;0.995
'[15:50:13.856]';0.34;0.97
'[15:50:13.860]';0.295;0.97
'[15:50:13.864]';0.29;0.99
'[15:50:13.868]';0.255;1
'[15:50:13.872]';0.275;1.01
'[15:50:13.876]';0.285;1.045
'[15:50:13.880]';0.33;1.09
'[15:50:13.884]';0.35;1.12
'[15:50:13.888]';0.345;1.18
'[15:50:13.892]';0.35;1.18
'[15:50:13.896]';0.385;1.205
'[15:50:13.900]';0.41;1.205
'[15:50:13.904]';0.395;1.23
'[15:50:13.908]';0.41;1.305
'[15:50:13.912]';0.42;1.325
'[15:50:13.916]';0.4;1.315
'[15:50:13.920]';0.42;1.355
'[15:50:13.924]';0.46;1.355
'[15:50:13.928]';0.485;1.415
'[15:50:13.932]';0.47;1.415
'[15:50:13.936]';0.525;1.455
'[15:50:13.940]';0.525;1.485
'[15:50:13.944]';0.515;1.53
'[15:50:13.948]';0.465;1.53
'[15:50:13.952]';0.4;1.52
'[15:50:13.956]';0.395;1.525
'[15:50:13.960]';0.38;1.525
'[15:50:13.964]';0.375;1.515
'[15:50:13.968]';0.36;1.5
'[15:50:13.972]';0.33;1.46
'[15:50:13.976]';0.265;1.43
'[15:50:13.980]';0.205;1.37
'[15:50:13.984]';0.155;1.345
'[15:50:13.988]';0.12;1.295
'[15:50:13.992]';0.065;1.21
'[15:50:13.996]';0.015;1.135
'[15:50:14.000]';-0.02;1.06
'[15:50:14.004]';-0.055;0.995
'[15:50:14.008]';-0.075;0.945
'[15:50:14.012]';-0.12;0.875
'[15:50:14.016]';-0.14;0.79
'[15:50:14.020]';-0.14;0.715
'[15:50:14.024]';-0.15;0.685
'[15:50:14.028]';-0.19;0.605
'[15:50:14.032]';-0.21;0.525
'[15:50:14.036]';-0.255;0.535
'[15:50:14.040]';-0.25;0.515
'[15:50:14.044]';-0.27;0.42
'[15:50:14.048]';-0.295;0.37
'[15:50:14.052]';-0.32;0.395
'[15:50:14.056]';-0.305;0.36
'[15:50:14.060]';-0.285;0.34
'[15:50:14.064]';-0.285;0.315
'[15:50:14.068]';-0.295;0.295
'[15:50:14.072]';-0.305;0.3
'[15:50:14.076]';-0.295;0.295
'[15:50:14.080]';-0.3;0.3
'[15:50:14.084]';-0.27;0.285
'[15:50:14.088]';-0.265;0.295
'[15:50:14.092]';-0.25;0.3
'[15:50:14.096]';-0.255;0.285
'[15:50:14.100]';-0.29;0.3
'[15:50:14.104]';-0.28;0.285
'[15:50:14.108]';-0.28;0.3
'[15:50:14.112]';-0.275;0.3
'[15:50:14.116]';-0.265;0.305
'[15:50:14.120]';-0.255;0.32
'[15:50:14.124]';-0.28;0.305
'[15:50:14.128]';-0.29;0.275
'[15:50:14.132]';-0.3;0.265
'[15:50:14.136]';-0.285;0.255
'[15:50:14.140]';-0.265;0.27
'[15:50:14.144]';-0.22;0.3
'[15:50:14.148]';-0.235;0.335
'[15:50:14.152]';-0.25;0.32
'[15:50:14.156]';-0.245;0.315
'[15:50:14.160]';-0.245;0.29
'[15:50:14.164]';-0.22;0.3
'[15:50:14.168]';-0.195;0.275
'[15:50:14.172]';-0.205;0.26
'[15:50:14.176]';-0.205;0.305
'[15:50:14.180]';-0.235;0.315
'[15:50:14.184]';-0.21;0.295
'[15:50:14.188]';-0.2;0.28
'[15:50:14.192]';-0.16;0.29
'[15:50:14.196]';-0.215;0.275
'[15:50:14.200]';-0.24;0.275
'[15:50:14.204]';-0.245;0.285
'[15:50:14.208]';-0.23;0.275
'[15:50:14.212]';-0.24;0.295
'[15:50:14.216]';-0.265;0.305
'[15:50:14.220]';-0.25;0.33
'[15:50:14.224]';-0.23;0.285
'[15:50:14.228]';-0.225;0.255
'[15:50:14.232]';-0.225;0.29
'[15:50:14.236]';-0.22;0.295
'[15:50:14.240]';-0.235;0.28
'[15:50:14.244]';-0.225;0.275
'[15:50:14.248]';-0.23;0.255
'[15:50:14.252]';-0.22;0.275
'[15:50:14.256]';-0.245;0.28
'[15:50:14.260]';-0.24;0.29
'[15:50:14.264]';-0.26;0.3
'[15:50:14.268]';-0.24;0.265
'[15:50:14.272]';-0.19;0.235
'[15:50:14.276]';-0.155;0.245
'[15:50:14.280]';-0.16;0.275
'[15:50:14.284]';-0.27;0.275
'[15:50:14.288]';-0.33;0.225
'[15:50:14.292]';-0.31;0.165
'[15:50:14.296]';-0.26;0.15
'[15:50:14.300]';-0.245;0.17
'[15:50:14.304]';-0.255;0.28
'[15:50:14.308]';-0.23;0.27
'[15:50:14.312]';-0.225;0.23
'[15:50:14.316]';-0.235;0.23
'[15:50:14.320]';-0.25;0.225
'[15:50:14.324]';-0.23;0.21
'[15:50:14.328]';-0.225;0.245
'[15:50:14.332]';-0.235;0.26
'[15:50:14.336]';-0.235;0.245
'[15:50:14.340]';-0.215;0.22
'[15:50:14.344]';-0.22;0.22
'[15:50:14.348]';-0.26;0.185
'[15:50:14.352]';-0.275;0.175
'[15:50:14.356]';-0.27;0.18
'[15:50:14.360]';-0.24;0.18
'[15:50:14.364]';-0.24;0.2
'[15:50:14.368]';-0.19;0.2
'[15:50:14.372]';-0.145;0.185
'[15:50:14.376]';-0.07;0.21
'[15:50:14.380]';-0.055;0.23
'[15:50:14.384]';-0.04;0.23
'[15:50:14.388]';-0.015;0.255
'[15:50:14.392]';-0.015;0.3
'[15:50:14.396]';-0.05;0.315
'[15:50:14.400]';-0.085;0.29
'[15:50:14.404]';-0.07;0.33
'[15:50:14.408]';-0.07;0.36
'[15:50:14.412]';-0.09;0.345
'[15:50:14.416]';-0.12;0.27
'[15:50:14.420]';-0.16;0.23
'[15:50:14.424]';-0.16;0.17
'[15:50:14.428]';-0.13;0.2
'[15:50:14.432]';-0.105;0.145
'[15:50:14.436]';-0.095;0.145
'[15:50:14.440]';-0.04;0.15
'[15:50:14.444]';0;0.19
'[15:50:14.448]';-0.03;0.165
'[15:50:14.452]';-0.055;0.225
'[15:50:14.456]';-0.11;0.26
'[15:50:14.460]';-0.21;0.28
'[15:50:14.464]';-0.25;0.27
'[15:50:14.468]';-0.26;0.23
'[15:50:14.472]';-0.27;0.195
'[15:50:14.476]';-0.24;0.18
'[15:50:14.480]';-0.24;0.145
'[15:50:14.484]';-0.295;0.13
'[15:50:14.488]';-0.32;0.13
'[15:50:14.492]';-0.29;0.135
'[15:50:14.496]';-0.265;0.14
'[15:50:14.500]';-0.255;0.145
'[15:50:14.504]';-0.26;0.22
'[15:50:14.508]';-0.275;0.225
'[15:50:14.512]';-0.26;0.21
'[15:50:14.516]';-0.28;0.165
'[15:50:14.520]';-0.265;0.13
'[15:50:14.524]';-0.29;0.125
'[15:50:14.528]';-0.27;0.11
'[15:50:14.532]';-0.265;0.13
'[15:50:14.536]';-0.27;0.155
'[15:50:14.540]';-0.255;0.135
'[15:50:14.544]';-0.275;0.13
'[15:50:14.548]';-0.28;0.125
'[15:50:14.552]';-0.245;0.145
'[15:50:14.556]';-0.22;0.125
'[15:50:14.560]';-0.19;0.155
'[15:50:14.564]';-0.135;0.16
'[15:50:14.568]';-0.03;0.12
'[15:50:14.572]';0.08;0.09
'[15:50:14.576]';0.025;0.155
'[15:50:14.580]';-0.135;0.235
'[15:50:14.584]';-0.36;0.32
'[15:50:14.588]';-0.775;0.22
'[15:50:14.592]';-1.25;-0.205
'[15:50:14.596]';-1.7;-0.735
'[15:50:14.600]';-2.04;-1.435
'[15:50:14.604]';-2.31;-2.35
'[15:50:14.608]';-2.35;-3.27
'[15:50:14.612]';-2.33;-3.945
'[15:50:14.616]';-2.305;-4.385
'[15:50:14.620]';-2.335;-4.715
'[15:50:14.624]';-2.31;-4.875
'[15:50:14.628]';-2.225;-4.925
'[15:50:14.632]';-2.145;-4.89
'[15:50:14.636]';-2.115;-4.74
'[15:50:14.640]';-2.09;-4.57
'[15:50:14.644]';-2.01;-4.46
'[15:50:14.648]';-1.955;-4.33
'[15:50:14.652]';-1.9;-4.23
'[15:50:14.656]';-1.72;-4.075
'[15:50:14.660]';-1.445;-3.84
'[15:50:14.664]';-1.155;-3.505
'[15:50:14.668]';-0.955;-3.165
'[15:50:14.672]';-0.815;-2.785
'[15:50:14.676]';-0.71;-2.365
'[15:50:14.680]';-0.56;-1.81
'[15:50:14.684]';-0.42;-1.345
'[15:50:14.688]';-0.24;-0.995
'[15:50:14.692]';-0.08;-0.71
'[15:50:14.696]';0.04;-0.45
'[15:50:14.700]';0.08;-0.285
'[15:50:14.704]';0.115;-0.085
'[15:50:14.708]';0.145;0.105
'[15:50:14.712]';0.18;0.265
'[15:50:14.716]';0.19;0.4
'[15:50:14.720]';0.22;0.49
'[15:50:14.724]';0.245;0.61
'[15:50:14.728]';0.235;0.68
'[15:50:14.732]';0.255;0.735
'[15:50:14.736]';0.28;0.77
'[15:50:14.740]';0.295;0.775
'[15:50:14.744]';0.265;0.775
'[15:50:14.748]';0.27;0.785
'[15:50:14.752]';0.295;0.815
'[15:50:14.756]';0.32;0.825
'[15:50:14.760]';0.325;0.82
'[15:50:14.764]';0.36;0.855
'[15:50:14.768]';0.385;0.885
'[15:50:14.772]';0.405;0.92
'[15:50:14.776]';0.405;0.905
'[15:50:14.780]';0.415;0.91
'[15:50:14.784]';0.415;0.93
'[15:50:14.788]';0.475;0.95
'[15:50:14.792]';0.495;0.955
'[15:50:14.796]';0.48;0.98
'[15:50:14.800]';0.47;0.95
'[15:50:14.804]';0.435;1
'[15:50:14.808]';0.435;1.055
'[15:50:14.812]';0.415;1.125
'[15:50:14.816]';0.43;1.12
'[15:50:14.820]';0.47;1.1
'[15:50:14.824]';0.49;1.135
'[15:50:14.828]';0.495;1.14
'[15:50:14.832]';0.52;1.145
'[15:50:14.836]';0.52;1.175
'[15:50:14.840]';0.53;1.195
'[15:50:14.844]';0.54;1.22
'[15:50:14.848]';0.575;1.25
'[15:50:14.852]';0.645;1.29
'[15:50:14.856]';0.61;1.31
'[15:50:14.860]';0.55;1.365
'[15:50:14.864]';0.54;1.4
'[15:50:14.868]';0.525;1.395
'[15:50:14.872]';0.51;1.4
'[15:50:14.876]';0.525;1.435
'[15:50:14.880]';0.56;1.45
'[15:50:14.884]';0.545;1.47
'[15:50:14.888]';0.55;1.465
'[15:50:14.892]';0.525;1.475
'[15:50:14.896]';0.53;1.465
'[15:50:14.900]';0.51;1.465
'[15:50:14.904]';0.445;1.47
'[15:50:14.908]';0.365;1.43
'[15:50:14.912]';0.315;1.4
'[15:50:14.916]';0.285;1.35
'[15:50:14.920]';0.26;1.305
'[15:50:14.924]';0.22;1.25
'[15:50:14.928]';0.24;1.165
'[15:50:14.932]';0.205;1.105
'[15:50:14.936]';0.14;1.03
'[15:50:14.940]';0.085;0.98
'[15:50:14.944]';0.06;0.925
'[15:50:14.948]';0.005;0.835
'[15:50:14.952]';-0.035;0.775
'[15:50:14.956]';-0.035;0.725
'[15:50:14.960]';-0.045;0.64
'[15:50:14.964]';-0.055;0.57
'[15:50:14.968]';-0.06;0.52
'[15:50:14.972]';-0.065;0.48
'[15:50:14.976]';-0.065;0.45
'[15:50:14.980]';-0.085;0.415
'[15:50:14.984]';-0.1;0.39
'[15:50:14.988]';-0.095;0.365
'[15:50:14.992]';-0.07;0.35
'[15:50:14.996]';-0.11;0.33
'[15:50:15.000]';-0.095;0.315
'[15:50:15.004]';-0.095;0.305
'[15:50:15.008]';-0.095;0.28
'[15:50:15.012]';-0.07;0.28
'[15:50:15.016]';-0.08;0.27
'[15:50:15.020]';-0.07;0.275
'[15:50:15.024]';-0.015;0.275
'[15:50:15.028]';-0.02;0.285
'[15:50:15.032]';-0.035;0.31
'[15:50:15.036]';-0.07;0.32
'[15:50:15.040]';-0.075;0.305
'[15:50:15.044]';-0.04;0.275
'[15:50:15.048]';-0.025;0.27
'[15:50:15.052]';-0.035;0.24
'[15:50:15.056]';-0.04;0.27
'[15:50:15.060]';-0.08;0.31
'[15:50:15.064]';-0.085;0.305
'[15:50:15.068]';-0.06;0.31
'[15:50:15.072]';-0.045;0.31
'[15:50:15.076]';0;0.305
'[15:50:15.080]';-0.02;0.29
'[15:50:15.084]';-0.06;0.31
'[15:50:15.088]';-0.055;0.325
'[15:50:15.092]';-0.055;0.31
'[15:50:15.096]';-0.035;0.315
'[15:50:15.100]';-0.025;0.295
'[15:50:15.104]';-0.04;0.315
'[15:50:15.108]';-0.04;0.325
'[15:50:15.112]';-0.015;0.31
'[15:50:15.116]';-0.005;0.31
'[15:50:15.120]';0;0.315
'[15:50:15.124]';-0.015;0.3
'[15:50:15.128]';-0.055;0.32
'[15:50:15.132]';-0.09;0.315
'[15:50:15.136]';-0.075;0.295
'[15:50:15.140]';-0.07;0.31
'[15:50:15.144]';-0.02;0.29
'[15:50:15.148]';-0.02;0.275
'[15:50:15.152]';-0.005;0.29
'[15:50:15.156]';-0.01;0.28
'[15:50:15.160]';-0.045;0.26
'[15:50:15.164]';-0.055;0.3
'[15:50:15.168]';-0.065;0.28
'[15:50:15.172]';-0.06;0.265
'[15:50:15.176]';-0.06;0.27
'[15:50:15.180]';-0.05;0.26
'[15:50:15.184]';-0.055;0.26
'[15:50:15.188]';-0.03;0.255
'[15:50:15.192]';-0.03;0.27
'[15:50:15.196]';-0.005;0.3
'[15:50:15.200]';-0.02;0.29
'[15:50:15.204]';-0.025;0.24
'[15:50:15.208]';0.02;0.21
'[15:50:15.212]';0.015;0.25
'[15:50:15.216]';0;0.315
'[15:50:15.220]';-0.055;0.355
'[15:50:15.224]';-0.05;0.265
'[15:50:15.228]';-0.025;0.23
'[15:50:15.232]';-0.01;0.23
'[15:50:15.236]';-0.04;0.215
'[15:50:15.240]';-0.055;0.2
'[15:50:15.244]';-0.045;0.23
'[15:50:15.248]';-0.04;0.235
'[15:50:15.252]';-0.035;0.235
'[15:50:15.256]';-0.03;0.24
'[15:50:15.260]';-0.015;0.245
'[15:50:15.264]';-0.03;0.225
'[15:50:15.268]';-0.055;0.25
'[15:50:15.272]';-0.07;0.25
'[15:50:15.276]';-0.055;0.235
'[15:50:15.280]';-0.02;0.24
'[15:50:15.284]';0;0.24
'[15:50:15.288]';0.005;0.21
'[15:50:15.292]';0;0.215
'[15:50:15.296]';-0.02;0.265
'[15:50:15.300]';-0.005;0.225
'[15:50:15.304]';-0.01;0.22
'[15:50:15.308]';-0.005;0.235
'[15:50:15.312]';0.015;0.235
'[15:50:15.316]';-0.025;0.2
'[15:50:15.320]';-0.06;0.22
'[15:50:15.324]';-0.02;0.215
'[15:50:15.328]';0.05;0.215
'[15:50:15.332]';0.12;0.26
'[15:50:15.336]';0.175;0.3
'[15:50:15.340]';0.19;0.33
'[15:50:15.344]';0.2;0.37
'[15:50:15.348]';0.205;0.43
'[15:50:15.352]';0.145;0.4
'[15:50:15.356]';0.125;0.41
'[15:50:15.360]';0.11;0.43
'[15:50:15.364]';0.1;0.36
'[15:50:15.368]';0.06;0.31
'[15:50:15.372]';0.065;0.275
'[15:50:15.376]';0.05;0.3
'[15:50:15.380]';0.1;0.265
'[15:50:15.384]';0.105;0.22
'[15:50:15.388]';0.135;0.21
'[15:50:15.392]';0.16;0.205
'[15:50:15.396]';0.19;0.205
'[15:50:15.400]';0.17;0.225
'[15:50:15.404]';0.14;0.235
'[15:50:15.408]';0.09;0.285
'[15:50:15.412]';0.06;0.285
'[15:50:15.416]';0.02;0.3
'[15:50:15.420]';-0.01;0.27
'[15:50:15.424]';-0.045;0.24
'[15:50:15.428]';-0.075;0.2
'[15:50:15.432]';-0.085;0.205
'[15:50:15.436]';-0.09;0.18
'[15:50:15.440]';-0.07;0.185
'[15:50:15.444]';-0.08;0.205
'[15:50:15.448]';-0.065;0.195
'[15:50:15.452]';-0.055;0.185
'[15:50:15.456]';-0.05;0.19
'[15:50:15.460]';-0.06;0.18
'[15:50:15.464]';-0.055;0.18
'[15:50:15.468]';-0.04;0.165
'[15:50:15.472]';-0.035;0.165
'[15:50:15.476]';-0.035;0.17
'[15:50:15.480]';-0.01;0.2
'[15:50:15.484]';-0.005;0.205
'[15:50:15.488]';-0.015;0.19
'[15:50:15.492]';-0.055;0.205
'[15:50:15.496]';-0.06;0.195
'[15:50:15.500]';-0.055;0.185
'[15:50:15.504]';-0.065;0.185
'[15:50:15.508]';-0.035;0.19
'[15:50:15.512]';-0.02;0.19
'[15:50:15.516]';0.005;0.18
'[15:50:15.520]';0.085;0.175
'[15:50:15.524]';0.225;0.18
'[15:50:15.528]';0.325;0.21
'[15:50:15.532]';0.29;0.25
'[15:50:15.536]';0.12;0.31
'[15:50:15.540]';-0.11;0.37
'[15:50:15.544]';-0.47;0.26
'[15:50:15.548]';-0.935;-0.2
'[15:50:15.552]';-1.31;-0.79
'[15:50:15.556]';-1.615;-1.555
'[15:50:15.560]';-1.835;-2.515
'[15:50:15.564]';-1.87;-3.42
'[15:50:15.568]';-1.78;-4.07
'[15:50:15.572]';-1.71;-4.505
'[15:50:15.576]';-1.81;-4.78
'[15:50:15.580]';-1.905;-4.92
'[15:50:15.584]';-1.915;-5.02
'[15:50:15.588]';-1.925;-5.005
'[15:50:15.592]';-1.95;-4.93
'[15:50:15.596]';-1.965;-4.825
'[15:50:15.600]';-1.875;-4.72
'[15:50:15.604]';-1.79;-4.64
'[15:50:15.608]';-1.78;-4.58
'[15:50:15.612]';-1.7;-4.535
'[15:50:15.616]';-1.515;-4.35
'[15:50:15.620]';-1.28;-4.1
'[15:50:15.624]';-1.07;-3.8
'[15:50:15.628]';-0.885;-3.445
'[15:50:15.632]';-0.75;-3.02
'[15:50:15.636]';-0.59;-2.545
'[15:50:15.640]';-0.42;-2.025
'[15:50:15.644]';-0.235;-1.545
'[15:50:15.648]';-0.095;-1.15
'[15:50:15.652]';0.06;-0.815
'[15:50:15.656]';0.145;-0.525
'[15:50:15.660]';0.205;-0.305
'[15:50:15.664]';0.22;-0.105
'[15:50:15.668]';0.23;0.09
'[15:50:15.672]';0.265;0.285
'[15:50:15.676]';0.265;0.465
'[15:50:15.680]';0.27;0.59
'[15:50:15.684]';0.29;0.685
'[15:50:15.688]';0.34;0.73
'[15:50:15.692]';0.315;0.78
'[15:50:15.696]';0.325;0.815
'[15:50:15.700]';0.325;0.83
'[15:50:15.704]';0.325;0.88
'[15:50:15.708]';0.365;0.9
'[15:50:15.712]';0.375;0.9
'[15:50:15.716]';0.385;0.92
'[15:50:15.720]';0.4;0.9
'[15:50:15.724]';0.395;0.925
'[15:50:15.728]';0.42;0.955
'[15:50:15.732]';0.43;0.97
'[15:50:15.736]';0.465;0.97
'[15:50:15.740]';0.465;1
'[15:50:15.744]';0.455;1.025
'[15:50:15.748]';0.495;1.025
'[15:50:15.752]';0.495;1.055
'[15:50:15.756]';0.485;1.08
'[15:50:15.760]';0.495;1.095
'[15:50:15.764]';0.505;1.11
'[15:50:15.768]';0.49;1.125
'[15:50:15.772]';0.53;1.135
'[15:50:15.776]';0.54;1.13
'[15:50:15.780]';0.55;1.165
'[15:50:15.784]';0.555;1.19
'[15:50:15.788]';0.555;1.205
'[15:50:15.792]';0.565;1.255
'[15:50:15.796]';0.575;1.26
'[15:50:15.800]';0.575;1.28
'[15:50:15.804]';0.6;1.285
'[15:50:15.808]';0.6;1.33
'[15:50:15.812]';0.595;1.315
'[15:50:15.816]';0.625;1.345
'[15:50:15.820]';0.64;1.38
'[15:50:15.824]';0.645;1.405
'[15:50:15.828]';0.635;1.43
'[15:50:15.832]';0.645;1.465
'[15:50:15.836]';0.635;1.49
'[15:50:15.840]';0.62;1.51
'[15:50:15.844]';0.615;1.515
'[15:50:15.848]';0.63;1.525
'[15:50:15.852]';0.605;1.53
'[15:50:15.856]';0.61;1.53
'[15:50:15.860]';0.585;1.52
'[15:50:15.864]';0.535;1.495
'[15:50:15.868]';0.515;1.47
'[15:50:15.872]';0.505;1.48
'[15:50:15.876]';0.45;1.435
'[15:50:15.880]';0.42;1.4
'[15:50:15.884]';0.375;1.355
'[15:50:15.888]';0.365;1.32
'[15:50:15.892]';0.28;1.28
'[15:50:15.896]';0.245;1.17
'[15:50:15.900]';0.205;1.09
'[15:50:15.904]';0.17;1.055
'[15:50:15.908]';0.135;0.97
'[15:50:15.912]';0.135;0.875
'[15:50:15.916]';0.13;0.81
'[15:50:15.920]';0.095;0.735
'[15:50:15.924]';0.055;0.67
'[15:50:15.928]';0.03;0.66
'[15:50:15.932]';0.01;0.62
'[15:50:15.936]';-0.015;0.535
'[15:50:15.940]';-0.04;0.45
'[15:50:15.944]';-0.055;0.415
'[15:50:15.948]';-0.075;0.37
'[15:50:15.952]';-0.09;0.35
'[15:50:15.956]';-0.09;0.32
'[15:50:15.960]';-0.08;0.265
'[15:50:15.964]';-0.085;0.27
'[15:50:15.968]';-0.09;0.26
'[15:50:15.972]';-0.09;0.24
'[15:50:15.976]';-0.09;0.26
'[15:50:15.980]';-0.12;0.23
'[15:50:15.984]';-0.11;0.22
'[15:50:15.988]';-0.14;0.22
'[15:50:15.992]';-0.1;0.23
'[15:50:15.996]';-0.115;0.21
'[15:50:16.000]';-0.11;0.19
'[15:50:16.004]';-0.095;0.18
'[15:50:16.008]';-0.085;0.18
'[15:50:16.012]';-0.09;0.21
'[15:50:16.016]';-0.095;0.19
'[15:50:16.020]';-0.1;0.215
'[15:50:16.024]';-0.1;0.21
'[15:50:16.028]';-0.1;0.2
'[15:50:16.032]';-0.08;0.215
'[15:50:16.036]';-0.06;0.215
'[15:50:16.040]';-0.08;0.2
'[15:50:16.044]';-0.085;0.205
'[15:50:16.048]';-0.085;0.195
'[15:50:16.052]';-0.065;0.235
'[15:50:16.056]';-0.065;0.225
'[15:50:16.060]';-0.08;0.255
'[15:50:16.064]';-0.07;0.24
'[15:50:16.068]';-0.075;0.255
'[15:50:16.072]';-0.07;0.24
'[15:50:16.076]';-0.075;0.25
'[15:50:16.080]';-0.07;0.255
'[15:50:16.084]';-0.07;0.255
'[15:50:16.088]';-0.05;0.22
'[15:50:16.092]';-0.08;0.2
'[15:50:16.096]';-0.05;0.19
'[15:50:16.100]';-0.05;0.24
'[15:50:16.104]';-0.05;0.225
'[15:50:16.108]';-0.065;0.25
'[15:50:16.112]';-0.06;0.23
'[15:50:16.116]';-0.055;0.255
'[15:50:16.120]';-0.06;0.23
'[15:50:16.124]';-0.06;0.215
'[15:50:16.128]';-0.05;0.215
'[15:50:16.132]';-0.055;0.22
'[15:50:16.136]';-0.07;0.18
'[15:50:16.140]';-0.06;0.18
'[15:50:16.144]';-0.06;0.19
'[15:50:16.148]';-0.07;0.175
'[15:50:16.152]';-0.065;0.175
'[15:50:16.156]';-0.065;0.18
'[15:50:16.160]';-0.055;0.165
'[15:50:16.164]';-0.05;0.16
'[15:50:16.168]';-0.085;0.16
'[15:50:16.172]';-0.075;0.145
'[15:50:16.176]';-0.1;0.14
'[15:50:16.180]';-0.1;0.125
'[15:50:16.184]';-0.08;0.14
'[15:50:16.188]';-0.1;0.15
'[15:50:16.192]';-0.075;0.145
'[15:50:16.196]';-0.08;0.14
'[15:50:16.200]';-0.06;0.11
'[15:50:16.204]';-0.06;0.115
'[15:50:16.208]';-0.08;0.155
'[15:50:16.212]';-0.115;0.15
'[15:50:16.216]';-0.11;0.145
'[15:50:16.220]';-0.095;0.105
'[15:50:16.224]';-0.08;0.095
'[15:50:16.228]';-0.11;0.08
'[15:50:16.232]';-0.1;0.105
'[15:50:16.236]';-0.095;0.125
'[15:50:16.240]';-0.085;0.12
'[15:50:16.244]';-0.085;0.12
'[15:50:16.248]';-0.065;0.14
'[15:50:16.252]';-0.105;0.145
'[15:50:16.256]';-0.11;0.12
'[15:50:16.260]';-0.12;0.09
'[15:50:16.264]';-0.11;0.095
'[15:50:16.268]';-0.125;0.09
'[15:50:16.272]';-0.1;0.075
'[15:50:16.276]';-0.115;0.08
'[15:50:16.280]';-0.1;0.095
'[15:50:16.284]';-0.1;0.09
'[15:50:16.288]';-0.085;0.095
'[15:50:16.292]';-0.08;0.095
'[15:50:16.296]';-0.065;0.1
'[15:50:16.300]';-0.07;0.12
'[15:50:16.304]';-0.04;0.09
'[15:50:16.308]';-0.035;0.115
'[15:50:16.312]';-0.005;0.115
'[15:50:16.316]';0.025;0.13
'[15:50:16.320]';0.055;0.115
'[15:50:16.324]';0.1;0.165
'[15:50:16.328]';0.165;0.22
'[15:50:16.332]';0.21;0.24
'[15:50:16.336]';0.195;0.28
'[15:50:16.340]';0.195;0.285
'[15:50:16.344]';0.255;0.285
'[15:50:16.348]';0.31;0.26
'[15:50:16.352]';0.39;0.275
'[15:50:16.356]';0.43;0.27
'[15:50:16.360]';0.495;0.31
'[15:50:16.364]';0.605;0.365
'[15:50:16.368]';0.715;0.44
'[15:50:16.372]';0.79;0.495
'[15:50:16.376]';0.94;0.56
'[15:50:16.380]';1.12;0.66
'[15:50:16.384]';1.26;0.75
'[15:50:16.388]';1.38;0.865
'[15:50:16.392]';1.44;0.95
'[15:50:16.396]';1.485;1.07
'[15:50:16.400]';1.56;1.14
'[15:50:16.404]';1.615;1.205
'[15:50:16.408]';1.71;1.235
'[15:50:16.412]';1.82;1.24
'[15:50:16.416]';1.94;1.32
'[15:50:16.420]';2.12;1.365
'[15:50:16.424]';2.29;1.45
'[15:50:16.428]';2.44;1.54
'[15:50:16.432]';2.555;1.655
'[15:50:16.436]';2.61;1.83
'[15:50:16.440]';2.66;1.97
'[15:50:16.444]';2.675;2.135
'[15:50:16.448]';2.66;2.23
'[15:50:16.452]';2.65;2.31
'[15:50:16.456]';2.57;2.34
'[15:50:16.460]';2.38;2.4
'[15:50:16.464]';2.085;2.45
'[15:50:16.468]';1.675;2.48
'[15:50:16.472]';1.34;2.4
'[15:50:16.476]';1.07;2.29
'[15:50:16.480]';0.88;2.18
'[15:50:16.484]';0.655;2.07
'[15:50:16.488]';0.375;1.965
'[15:50:16.492]';-0.005;1.72
'[15:50:16.496]';-0.38;1.22
'[15:50:16.500]';-0.75;0.725
'[15:50:16.504]';-0.985;0.375
'[15:50:16.508]';-1.13;0.005
'[15:50:16.512]';-1.18;-0.305
'[15:50:16.516]';-1.18;-0.515
'[15:50:16.520]';-1.19;-0.605
'[15:50:16.524]';-1.205;-0.68
'[15:50:16.528]';-1.21;-0.735
'[15:50:16.532]';-1.27;-0.76
'[15:50:16.536]';-1.29;-0.77
'[15:50:16.540]';-1.3;-0.77
'[15:50:16.544]';-1.315;-0.835
'[15:50:16.548]';-1.36;-0.84
'[15:50:16.552]';-1.345;-0.85
'[15:50:16.556]';-1.345;-0.89
'[15:50:16.560]';-1.375;-0.9
'[15:50:16.564]';-1.42;-0.9
'[15:50:16.568]';-1.425;-0.93
'[15:50:16.572]';-1.445;-0.915
'[15:50:16.576]';-1.475;-0.945
'[15:50:16.580]';-1.53;-1.005
'[15:50:16.584]';-1.54;-1.015
'[15:50:16.588]';-1.605;-1.06
'[15:50:16.592]';-1.66;-1.095
'[15:50:16.596]';-1.69;-1.17
'[15:50:16.600]';-1.72;-1.205
'[15:50:16.604]';-1.725;-1.23
'[15:50:16.608]';-1.79;-1.26
'[15:50:16.612]';-1.85;-1.245
'[15:50:16.616]';-1.89;-1.31
'[15:50:16.620]';-1.98;-1.355
'[15:50:16.624]';-2.025;-1.395
'[15:50:16.628]';-2.075;-1.47
'[15:50:16.632]';-2.12;-1.51
'[15:50:16.636]';-2.185;-1.565
'[15:50:16.640]';-2.275;-1.61
'[15:50:16.644]';-2.32;-1.68
'[15:50:16.648]';-2.34;-1.715
'[15:50:16.652]';-2.41;-1.77
'[15:50:16.656]';-2.48;-1.81
'[15:50:16.660]';-2.545;-1.87
'[15:50:16.664]';-2.6;-1.915
'[15:50:16.668]';-2.66;-1.935
'[15:50:16.672]';-2.72;-1.995
'[15:50:16.676]';-2.79;-2.045
'[15:50:16.680]';-2.825;-2.105
'[15:50:16.684]';-2.885;-2.17
'[15:50:16.688]';-2.91;-2.2
'[15:50:16.692]';-2.935;-2.205
'[15:50:16.696]';-2.925;-2.18
'[15:50:16.700]';-2.95;-2.25
'[15:50:16.704]';-2.96;-2.315
'[15:50:16.708]';-2.95;-2.355
'[15:50:16.712]';-2.94;-2.32
'[15:50:16.716]';-2.92;-2.28
'[15:50:16.720]';-2.925;-2.3
'[15:50:16.724]';-2.87;-2.34
