Time ;Ecg 1;Ecg 2
17:13:34.673;2429143.0;2420908.0
17:13:34.677;3400898.0;3389526.0
17:13:34.681;3668131.0;3655747.0
17:13:34.685;3604746.0;3592544.0
17:13:34.689;3396114.0;3384288.0
17:13:34.693;3132433.0;3125091.0
17:13:34.697;2857230.0;2848957.0
17:13:34.701;2590691.0;2582403.0
17:13:34.705;2341503.0;2333806.0
17:13:34.709;2112721.0;2105964.0
17:13:34.713;1904289.0;1898588.0
17:13:34.717;1714617.0;1709374.0
17:13:34.721;1543108.0;1537861.0
17:13:34.725;1388763.0;1383753.0
17:13:34.729;1249909.0;1245282.0
17:13:34.733;1124911.0;1120627.0
17:13:34.737;1012395.0;1008435.0
17:13:34.741;911118.0;907542.0
17:13:34.745;819972.0;816734.0
17:13:34.749;737938.0;735003.0
17:13:34.753;664186.0;661594.0
17:13:34.757;597920.0;595749.0
17:13:34.761;537947.0;535820.0
17:13:34.765;484008.0;482131.0
17:13:34.769;438375.0;440794.0
17:13:34.773;393135.0;393636.0
17:13:34.777;353357.0;352768.0
17:13:34.781;318047.0;317138.0
17:13:34.785;286697.0;285970.0
17:13:34.789;258514.0;258335.0
17:13:34.793;232397.0;232327.0
17:13:34.797;208499.0;207936.0
17:13:34.801;187160.0;186441.0
17:13:34.805;168265.0;167496.0
17:13:34.809;151340.0;150567.0
17:13:34.813;136125.0;135305.0
17:13:34.817;122433.0;121637.0
17:13:34.821;110148.0;109415.0
17:13:34.825;99024.0;98406.0
17:13:34.829;89112.0;88490.0
17:13:34.833;80389.0;79906.0
17:13:34.837;72423.0;71865.0
17:13:34.841;64971.0;64483.0
17:13:34.845;59054.0;58068.0
17:13:34.849;51731.0;51083.0
17:13:34.853;47030.0;46810.0
17:13:34.857;42772.0;42740.0
17:13:34.861;39006.0;39362.0
17:13:34.865;35819.0;36700.0
17:13:34.869;32537.0;33797.0
17:13:34.873;28701.0;29634.0
17:13:34.877;25215.0;25610.0
17:13:34.881;22379.0;22558.0
17:13:34.885;20078.0;20124.0
17:13:34.889;17970.0;18016.0
17:13:34.893;16097.0;16080.0
17:13:34.897;14447.0;14383.0
17:13:34.901;12989.0;12868.0
17:13:34.905;11589.0;11511.0
17:13:34.909;10530.0;10536.0
17:13:34.913;9658.0;9628.0
17:13:34.917;8467.0;8338.0
17:13:34.921;7457.0;7272.0
17:13:34.925;8604.0;12844.0
17:13:34.929;6863.0;8683.0
17:13:34.933;5959.0;6510.0
17:13:34.937;5533.0;5587.0
17:13:34.941;5558.0;5618.0
17:13:34.945;5571.0;5936.0
17:13:34.949;4684.0;5102.0
17:13:34.953;3491.0;3480.0
17:13:34.957;2748.0;2486.0
17:13:34.961;2215.0;1860.0
17:13:34.965;1902.0;1504.0
17:13:34.969;1625.0;1172.0
17:13:34.973;1372.0;930.0
17:13:34.977;1217.0;737.0
17:13:34.981;1071.0;624.0
17:13:34.985;1055.0;714.0
17:13:34.989;1150.0;755.0
17:13:34.993;825.0;312.0
17:13:34.997;608.0;25.0
17:13:35.001;1976.0;5747.0
17:13:35.005;1142.0;2581.0
17:13:35.009;913.0;1146.0
17:13:35.013;1015.0;813.0
17:13:35.017;1465.0;1330.0
17:13:35.021;1868.0;2084.0
17:13:35.025;1359.0;1571.0
17:13:35.029;567.0;256.0
17:13:35.033;83.0;-504.0
17:13:35.037;-44.0;-741.0
17:13:35.041;-106.0;-771.0
17:13:35.045;-145.0;-818.0
17:13:35.049;-224.0;-853.0
17:13:35.053;-294.0;-856.0
17:13:35.057;-346.0;-870.0
17:13:35.061;9.0;-373.0
17:13:35.065;-121.0;-611.0
17:13:35.069;-350.0;-925.0
17:13:41.229;1168.0;1098.0
17:13:41.233;843.0;915.0
17:13:41.237;1104.0;1573.0
17:13:41.241;1151.0;2003.0
17:13:41.245;443.0;1043.0
17:13:41.249;-222.0;-118.0
17:13:41.253;-492.0;-591.0
17:13:41.257;-569.0;-805.0
17:13:41.261;-564.0;-858.0
17:13:41.265;-620.0;-898.0
17:13:41.269;-646.0;-902.0
17:13:41.273;-652.0;-917.0
17:13:41.277;-580.0;-834.0
17:13:41.281;-213.0;-229.0
17:13:41.285;-250.0;-403.0
17:13:41.289;-497.0;-691.0
17:13:41.293;902.0;770.0
17:13:41.297;-682.0;-594.0
17:13:41.301;-497.0;-424.0
17:13:41.305;-161.0;-25.0
17:13:41.309;380.0;616.0
17:13:41.313;1104.0;1766.0
17:13:41.317;1185.0;2147.0
17:13:41.321;441.0;1119.0
17:13:41.325;-151.0;81.0
17:13:41.329;-368.0;-328.0
17:13:41.333;-455.0;-532.0
17:13:41.337;-543.0;-634.0
17:13:41.341;-563.0;-709.0
17:13:41.345;-587.0;-738.0
17:13:41.349;-629.0;-743.0
17:13:41.353;-519.0;-636.0
17:13:41.357;-176.0;-122.0
17:13:41.361;-297.0;-366.0
17:13:41.365;-491.0;-629.0
17:13:41.369;1406.0;1763.0
17:13:41.373;-197.0;213.0
17:13:41.377;-199.0;-54.0
17:13:41.381;107.0;112.0
17:13:41.385;615.0;690.0
17:13:41.389;1247.0;1725.0
17:13:41.393;1297.0;2067.0
17:13:41.397;479.0;898.0
17:13:41.401;-145.0;-122.0
17:13:41.405;-286.0;-497.0
17:13:41.409;-360.0;-682.0
17:13:41.413;-375.0;-764.0
17:13:41.417;-372.0;-860.0
17:13:41.421;-371.0;-871.0
17:13:41.425;-354.0;-883.0
17:13:41.429;-145.0;-420.0
17:13:41.433;-113.0;-405.0
17:13:41.437;-405.0;-733.0
17:13:41.441;366.0;-571.0
17:13:41.445;-1212.0;-2006.0
17:13:41.449;-542.0;-927.0
17:13:41.453;23.0;-48.0
17:13:41.457;645.0;884.0
17:13:41.461;1316.0;2035.0
17:13:41.465;1483.0;2637.0
17:13:41.469;767.0;1562.0
17:13:41.473;97.0;448.0
17:13:41.477;-131.0;-104.0
17:13:41.481;-182.0;-320.0
17:13:41.485;-243.0;-476.0
17:13:41.489;-365.0;-565.0
17:13:41.493;-331.0;-509.0
17:13:41.497;-222.0;-227.0
17:13:41.501;-117.0;-294.0
17:13:41.505;-322.0;-537.0
17:13:41.509;55.0;-769.0
17:13:41.513;-1357.0;-1636.0
17:13:41.517;-634.0;-669.0
17:13:41.521;-66.0;118.0
17:13:41.525;504.0;1003.0
17:13:41.529;1248.0;2237.0
17:13:41.533;1441.0;2921.0
17:13:41.537;761.0;1943.0
17:13:41.541;120.0;819.0
17:13:41.545;-192.0;294.0
17:13:41.549;-212.0;71.0
17:13:41.553;-273.0;-113.0
17:13:41.557;-297.0;-200.0
17:13:41.561;-363.0;-236.0
17:13:41.565;-439.0;-290.0
17:13:41.569;-304.0;22.0
17:13:41.573;-203.0;-22.0
17:13:41.577;-425.0;-303.0
17:13:41.581;-307.0;-521.0
17:13:41.585;-373.0;1751.0
17:13:41.589;-314.0;828.0
17:13:41.593;-30.0;602.0
17:13:41.597;362.0;945.0
17:13:41.601;941.0;1853.0
17:13:41.605;1337.0;2606.0
17:13:41.609;762.0;1738.0
17:13:41.613;43.0;489.0
17:13:41.617;-334.0;-127.0
17:13:41.621;-443.0;-302.0
17:13:41.625;-521.0;-473.0
17:13:42.546;-552.0;-514.0
17:13:42.550;-475.0;-629.0
17:13:42.554;-630.0;-840.0
17:13:42.558;1536.0;2392.0
17:13:42.562;-152.0;572.0
17:13:42.566;-288.0;-76.0
17:13:42.570;-95.0;-67.0
17:13:42.574;369.0;525.0
17:13:42.578;1040.0;1587.0
17:13:42.582;998.0;1877.0
17:13:42.586;263.0;713.0
17:13:42.590;-305.0;-285.0
17:13:42.594;-504.0;-709.0
17:13:42.598;-504.0;-783.0
17:13:42.602;-500.0;-823.0
17:13:42.606;-550.0;-883.0
17:13:42.610;-619.0;-856.0
17:13:42.614;-481.0;-612.0
17:13:42.618;-320.0;-640.0
17:13:42.622;-570.0;-907.0
17:13:42.626;-180.0;-1114.0
17:13:42.630;-1116.0;-913.0
17:13:42.634;-634.0;-555.0
17:13:42.638;-196.0;-214.0
17:13:42.642;385.0;413.0
17:13:42.646;1098.0;1480.0
17:13:42.650;1493.0;2176.0
17:13:42.654;745.0;1204.0
17:13:42.658;9.0;108.0
17:13:42.662;-372.0;-450.0
17:13:42.666;-411.0;-639.0
17:13:42.670;-402.0;-724.0
17:13:42.674;-381.0;-789.0
17:13:42.678;-151.0;-481.0
17:13:42.682;-169.0;-641.0
17:13:42.686;-496.0;-988.0
17:13:42.690;504.0;-247.0
17:13:42.694;-979.0;-1864.0
17:13:42.698;-509.0;-1037.0
17:13:42.702;-124.0;-308.0
17:13:42.706;463.0;595.0
17:13:42.710;1109.0;1811.0
17:13:42.714;1195.0;2226.0
17:13:42.718;457.0;944.0
17:13:42.722;-79.0;-65.0
17:13:42.726;-323.0;-468.0
17:13:42.730;-303.0;-492.0
17:13:42.734;-411.0;-647.0
17:13:42.738;-421.0;-694.0
17:13:42.742;-219.0;-363.0
17:13:42.746;-414.0;-747.0
17:13:42.750;-548.0;-914.0
17:13:42.754;2122.0;5097.0
17:13:42.758;397.0;2031.0
17:13:42.762;-15.0;469.0
17:13:42.766;-8.0;83.0
17:13:42.770;374.0;527.0
17:13:42.774;807.0;1527.0
17:13:42.778;579.0;1341.0
17:13:42.782;-67.0;53.0
17:13:42.786;-476.0;-699.0
17:13:42.790;-577.0;-1007.0
17:13:42.794;-577.0;-1131.0
17:13:42.798;-586.0;-1233.0
17:13:42.802;-575.0;-1304.0
17:13:42.806;-564.0;-1087.0
17:13:42.810;-377.0;-1062.0
17:13:42.814;-525.0;-1239.0
17:13:42.818;-449.0;-1383.0
17:13:42.822;-396.0;2117.0
17:13:42.826;-356.0;579.0
17:13:42.830;-153.0;77.0
17:13:42.834;219.0;266.0
17:13:42.838;797.0;1107.0
17:13:42.842;1138.0;1808.0
17:13:42.846;613.0;1112.0
17:13:42.850;-9.0;8.0
17:13:42.854;-311.0;-531.0
17:13:42.858;-399.0;-681.0
17:13:42.862;-504.0;-829.0
17:13:42.866;-551.0;-889.0
17:13:42.870;-583.0;-866.0
17:13:42.874;-619.0;-899.0
17:13:42.878;-584.0;-889.0
17:13:42.882;-376.0;-643.0
17:13:42.886;-463.0;-700.0
17:13:42.890;-526.0;-850.0
17:13:42.894;929.0;5067.0
17:13:42.898;157.0;2003.0
17:13:42.902;21.0;640.0
17:13:42.906;206.0;331.0
17:13:42.910;755.0;910.0
17:13:42.914;1119.0;1555.0
17:13:42.918;664.0;956.0
17:13:42.922;-90.0;-97.0
17:13:42.926;-371.0;-550.0
17:13:42.930;-501.0;-865.0
17:13:42.934;-503.0;-983.0
17:13:42.938;-582.0;-1048.0
17:13:42.942;-516.0;-1037.0
17:13:46.848;-522.0;-1016.0
17:13:46.852;-381.0;-1004.0
17:13:46.856;-530.0;-1111.0
17:13:46.860;932.0;732.0
17:13:46.864;-498.0;-657.0
17:13:46.868;-298.0;-500.0
17:13:46.872;15.0;-126.0
17:13:46.876;433.0;369.0
17:13:46.880;1053.0;1428.0
17:13:46.884;1134.0;1722.0
17:13:46.888;457.0;900.0
17:13:46.892;-80.0;-59.0
17:13:46.896;-319.0;-574.0
17:13:46.900;-381.0;-721.0
17:13:46.904;-476.0;-892.0
17:13:46.908;-418.0;-952.0
17:13:46.912;-528.0;-1032.0
17:13:46.916;-587.0;-960.0
17:13:46.920;-168.0;-486.0
17:13:46.924;-146.0;-585.0
17:13:46.928;-379.0;-644.0
17:13:46.932;854.0;1218.0
17:13:46.936;-404.0;-103.0
17:13:46.940;-311.0;-101.0
17:13:46.944;-47.0;275.0
17:13:46.948;381.0;935.0
17:13:46.952;990.0;1988.0
17:13:46.956;1024.0;2323.0
17:13:46.960;295.0;1130.0
17:13:46.964;-173.0;175.0
17:13:46.968;-316.0;-131.0
17:13:46.972;-382.0;-325.0
17:13:46.976;-455.0;-543.0
17:13:46.980;-488.0;-581.0
17:13:46.984;-459.0;-594.0
17:13:46.988;-422.0;-644.0
17:13:46.992;-426.0;-596.0
17:13:46.996;-253.0;-321.0
17:13:47.000;-364.0;-463.0
17:13:47.004;-475.0;-513.0
17:13:47.008;1777.0;6543.0
17:13:47.012;473.0;2845.0
17:13:47.016;83.0;946.0
17:13:47.020;131.0;428.0
17:13:47.024;486.0;774.0
17:13:47.028;937.0;1485.0
17:13:47.032;693.0;1282.0
17:13:47.036;-61.0;29.0
17:13:47.040;-439.0;-621.0
17:13:47.044;-569.0;-946.0
17:13:47.048;-622.0;-983.0
17:13:47.052;-638.0;-1023.0
17:13:47.056;-683.0;-1091.0
17:13:47.060;-648.0;-1103.0
17:13:47.064;-594.0;-995.0
17:13:47.068;-580.0;-896.0
17:13:47.072;-213.0;-434.0
17:13:47.076;-348.0;-717.0
17:13:47.080;-490.0;-782.0
17:13:47.084;2499.0;5773.0
17:13:47.088;721.0;2293.0
17:13:47.092;98.0;553.0
17:13:47.096;131.0;174.0
17:13:47.100;434.0;477.0
17:13:47.104;993.0;1087.0
17:13:47.108;820.0;942.0
17:13:47.112;17.0;-105.0
17:13:47.116;-391.0;-722.0
17:13:47.120;-695.0;-1093.0
17:13:47.124;-746.0;-1143.0
17:13:47.128;-782.0;-1134.0
17:13:47.132;-803.0;-1151.0
17:13:47.136;-795.0;-1194.0
17:13:47.140;-555.0;-1137.0
17:13:47.144;-1171.0;-1138.0
17:13:47.148;-306.0;-824.0
17:13:47.152;-166.0;-832.0
17:13:47.156;-481.0;-966.0
17:13:47.160;2136.0;3712.0
17:13:47.164;-20.0;1217.0
17:13:47.168;-539.0;30.0
17:13:47.172;-785.0;-190.0
17:13:47.176;101.0;312.0
17:13:47.180;490.0;1217.0
17:13:47.184;535.0;1231.0
17:13:47.188;79.0;104.0
17:13:47.192;-305.0;-760.0
17:13:47.196;-133.0;-996.0
17:13:47.200;-207.0;-1156.0
17:13:47.204;-226.0;-1313.0
17:13:47.208;-202.0;-1340.0
17:13:47.212;-282.0;-1359.0
17:13:47.216;-172.0;-1342.0
17:13:47.220;-61.0;-1174.0
17:13:47.224;-19.0;-1293.0
17:13:47.228;40.0;-1312.0
17:13:47.232;543.0;3740.0
17:13:47.236;356.0;1164.0
17:13:47.240;401.0;-8.0
17:13:47.244;641.0;-275.0
17:13:51.554;1143.0;300.0
17:13:51.558;752.0;-858.0
17:13:51.562;608.0;-1215.0
17:13:51.566;555.0;-1343.0
17:13:51.570;466.0;-1698.0
17:13:51.574;522.0;-1583.0
17:13:51.578;526.0;-1351.0
17:13:51.582;739.0;-1047.0
17:13:51.586;555.0;-1028.0
17:13:51.590;378.0;-1082.0
17:13:51.594;2253.0;2941.0
17:13:51.598;872.0;791.0
17:13:51.602;547.0;33.0
17:13:51.606;612.0;51.0
17:13:51.610;884.0;744.0
17:13:51.614;1318.0;1856.0
17:13:51.618;1174.0;1932.0
17:13:51.622;411.0;660.0
17:13:51.626;31.0;-218.0
17:13:51.630;-30.0;-541.0
17:13:51.634;-54.0;-715.0
17:13:51.638;-7.0;-797.0
17:13:51.642;54.0;-734.0
17:13:51.646;105.0;-639.0
17:13:51.650;316.0;-350.0
17:13:51.654;5.0;-670.0
17:13:51.658;-135.0;-768.0
17:13:51.662;2484.0;6472.0
17:13:51.666;1077.0;2673.0
17:13:51.670;509.0;786.0
17:13:51.674;483.0;333.0
17:13:51.678;806.0;826.0
17:13:51.682;1096.0;1612.0
17:13:51.686;699.0;1136.0
17:13:51.690;152.0;-215.0
17:13:51.694;-124.0;-885.0
17:13:51.698;-101.0;-1015.0
17:13:51.702;-108.0;-1096.0
17:13:51.706;-78.0;-1130.0
17:13:51.710;-140.0;-1087.0
17:13:51.714;100.0;-928.0
17:13:51.718;18.0;-964.0
17:13:51.722;-138.0;-1031.0
17:13:51.726;1319.0;2340.0
17:13:51.730;256.0;512.0
17:13:51.734;56.0;-23.0
17:13:51.738;155.0;11.0
17:13:51.742;523.0;677.0
17:13:51.746;1012.0;1835.0
17:13:51.750;941.0;1979.0
17:13:51.754;359.0;697.0
17:13:51.758;38.0;-131.0
17:13:51.762;-1.0;-391.0
17:13:51.766;-69.0;-548.0
17:13:51.770;-54.0;-588.0
17:13:51.774;-22.0;-642.0
17:13:51.778;-91.0;-629.0
17:13:51.782;143.0;-372.0
17:13:51.786;-134.0;-676.0
17:13:51.790;-196.0;-738.0
17:13:51.794;2189.0;6729.0
17:13:51.798;737.0;2773.0
17:13:51.802;262.0;881.0
17:13:51.806;138.0;277.0
17:13:51.810;513.0;852.0
17:13:51.814;812.0;1669.0
17:13:51.818;418.0;1039.0
17:13:51.822;-131.0;-291.0
17:13:51.826;-421.0;-913.0
17:13:51.830;-490.0;-1184.0
17:13:51.834;-464.0;-1211.0
17:13:51.838;-515.0;-1239.0
17:13:51.842;-452.0;-1203.0
17:13:51.846;-490.0;-1189.0
17:13:51.850;-435.0;-1170.0
17:13:51.854;-307.0;-873.0
17:13:51.858;-97.0;-956.0
17:13:51.862;-333.0;-1007.0
17:13:51.866;-36.0;-628.0
17:13:51.870;-1038.0;-1802.0
17:13:51.874;-611.0;-988.0
17:13:51.878;-575.0;-236.0
17:13:51.882;216.0;437.0
17:13:51.886;656.0;1693.0
17:13:51.890;1419.0;2086.0
17:13:51.894;566.0;994.0
17:13:51.898;159.0;-123.0
17:13:51.902;-1625.0;-645.0
17:13:51.906;-837.0;-831.0
17:13:51.910;-968.0;-821.0
17:13:51.914;-764.0;-949.0
17:13:51.918;-822.0;-985.0
17:13:51.922;-528.0;-921.0
17:13:51.926;-315.0;-933.0
17:13:51.930;-517.0;-799.0
17:13:51.934;126.0;-451.0
17:13:51.938;-1361.0;-716.0
17:13:51.942;-851.0;-767.0
17:13:51.946;1015.0;4341.0
17:13:51.950;-3.0;1745.0
17:13:55.274;-309.0;514.0
17:13:55.278;311.0;1745.0
17:13:55.282;199.0;1310.0
17:13:55.286;-326.0;96.0
17:13:55.290;-639.0;-599.0
17:13:55.294;-711.0;-775.0
17:13:55.298;-731.0;-888.0
17:13:55.302;-660.0;-984.0
17:13:55.306;-651.0;-1012.0
17:13:55.310;-682.0;-1034.0
17:13:55.314;-614.0;-935.0
17:13:55.318;-339.0;-528.0
17:13:55.322;-462.0;-793.0
17:13:55.326;-631.0;-923.0
17:13:55.330;1974.0;5019.0
17:13:55.334;315.0;1963.0
17:13:55.338;-203.0;518.0
17:13:55.342;-242.0;155.0
17:13:55.346;1.0;622.0
17:13:55.350;486.0;1814.0
17:13:55.354;343.0;1755.0
17:13:55.358;-381.0;274.0
17:13:55.362;-795.0;-668.0
17:13:55.366;-955.0;-998.0
17:13:55.370;-956.0;-1050.0
17:13:55.374;-885.0;-1052.0
17:13:55.378;-938.0;-1122.0
17:13:55.382;-870.0;-1050.0
17:13:55.386;-790.0;-951.0
17:13:55.390;-678.0;-569.0
17:13:55.394;-683.0;-592.0
17:13:55.398;-910.0;-804.0
17:13:55.402;-702.0;-740.0
17:13:55.406;-1659.0;-1724.0
17:13:55.410;-1172.0;-824.0
17:13:55.414;-673.0;-88.0
17:13:55.418;-3.0;764.0
17:13:55.422;837.0;2148.0
17:13:55.426;1098.0;3003.0
17:13:55.430;498.0;1835.0
17:13:55.434;-60.0;550.0
17:13:55.438;-334.0;-72.0
17:13:55.442;-435.0;-304.0
17:13:55.446;-395.0;-365.0
17:13:55.450;-354.0;-441.0
17:13:55.454;-354.0;-490.0
17:13:55.458;-404.0;-525.0
17:13:55.462;-463.0;-581.0
17:13:55.466;-449.0;-577.0
17:13:55.470;-347.0;-613.0
17:13:55.474;-205.0;-274.0
17:13:55.478;-87.0;-328.0
17:13:55.482;-367.0;-454.0
17:13:55.486;-455.0;-722.0
17:13:55.490;139.0;1831.0
17:13:55.494;-164.0;831.0
17:13:55.498;-1369.0;328.0
17:13:55.502;-28.0;560.0
17:13:55.506;1080.0;1581.0
17:13:55.510;1660.0;2574.0
17:13:55.514;497.0;1783.0
17:13:55.518;-34.0;507.0
17:13:55.522;-701.0;-179.0
17:13:55.526;-794.0;-387.0
17:13:55.530;-501.0;-474.0
17:13:55.534;-580.0;-539.0
17:13:55.538;-482.0;-486.0
17:13:55.542;-293.0;-475.0
17:13:55.546;-1704.0;-522.0
17:13:55.550;-511.0;-536.0
17:13:55.554;143.0;-400.0
17:13:55.558;286.0;-199.0
17:13:55.562;346.0;-140.0
17:13:55.566;-140.0;-454.0
17:13:55.570;24.0;-403.0
17:13:55.574;-948.0;-1381.0
17:13:55.578;-422.0;-642.0
17:13:55.582;384.0;-352.0
17:13:55.586;407.0;439.0
17:13:55.590;1188.0;1833.0
17:13:55.594;595.0;2614.0
17:13:55.598;517.0;1524.0
17:13:55.602;183.0;173.0
17:13:55.606;23.0;-577.0
17:13:55.610;-1269.0;-1129.0
17:13:55.614;-1466.0;-1631.0
17:13:55.618;-994.0;-1894.0
17:13:55.622;-1134.0;-1834.0
17:13:55.626;-823.0;-1470.0
17:13:55.630;-242.0;-1188.0
17:13:55.634;-398.0;-1021.0
17:13:55.638;-203.0;-575.0
17:13:55.642;580.0;-675.0
17:13:55.646;-140.0;-727.0
17:13:55.650;552.0;4772.0
17:13:55.654;292.0;1790.0
17:13:55.658;-450.0;220.0
17:13:55.662;-582.0;-534.0
17:13:55.666;-861.0;-541.0
17:13:55.670;-94.0;325.0
17:13:59.415;-552.0;302.0
17:13:59.419;-751.0;-472.0
17:13:59.423;-1163.0;-787.0
17:13:59.427;-957.0;-865.0
17:13:59.431;-917.0;-822.0
17:13:59.435;-883.0;-726.0
17:13:59.439;-761.0;-605.0
17:13:59.443;-482.0;-213.0
17:13:59.447;-389.0;-237.0
17:13:59.451;-497.0;-425.0
17:13:59.455;416.0;526.0
17:13:59.459;-972.0;-897.0
17:13:59.463;-630.0;-171.0
17:13:59.467;-167.0;421.0
17:13:59.471;337.0;1190.0
17:13:59.475;1046.0;2421.0
17:13:59.479;1370.0;3168.0
17:13:59.483;665.0;2128.0
17:13:59.487;-24.0;827.0
17:13:59.491;-366.0;128.0
17:13:59.495;-552.0;-87.0
17:13:59.499;-617.0;-243.0
17:13:59.503;-532.0;-376.0
17:13:59.507;-549.0;-404.0
17:13:59.511;-503.0;-453.0
17:13:59.515;-410.0;-440.0
17:13:59.519;-293.0;-448.0
17:13:59.523;-149.0;-440.0
17:13:59.527;97.0;-191.0
17:13:59.531;259.0;-217.0
17:13:59.535;29.0;-464.0
17:13:59.539;1157.0;804.0
17:13:59.543;-541.0;-909.0
17:13:59.547;-82.0;-427.0
17:13:59.551;313.0;108.0
17:13:59.555;833.0;797.0
17:13:59.559;1797.0;2037.0
17:13:59.563;533.0;2700.0
17:13:59.567;780.0;1587.0
17:13:59.571;270.0;377.0
17:13:59.575;107.0;-345.0
17:13:59.579;-128.0;-586.0
17:13:59.583;-491.0;-749.0
17:13:59.587;-5.0;-856.0
17:13:59.591;-1559.0;-947.0
17:13:59.595;-438.0;-944.0
17:13:59.599;-52.0;-966.0
17:13:59.603;50.0;-858.0
17:13:59.607;263.0;-728.0
17:13:59.611;-43.0;-917.0
17:13:59.615;-1426.0;-1477.0
17:13:59.619;-1324.0;-1834.0
17:13:59.623;-222.0;3718.0
17:13:59.627;-310.0;680.0
17:13:59.631;-231.0;-590.0
17:13:59.635;-271.0;-671.0
17:13:59.639;539.0;231.0
17:13:59.643;929.0;1530.0
17:13:59.647;956.0;1353.0
17:13:59.651;325.0;-8.0
17:13:59.655;-200.0;-925.0
17:13:59.659;-476.0;-1213.0
17:13:59.663;-349.0;-1062.0
17:13:59.667;-467.0;-1073.0
17:13:59.671;-378.0;-989.0
17:13:59.675;-510.0;-994.0
17:13:59.679;-159.0;-951.0
17:13:59.683;-292.0;-936.0
17:13:59.687;-438.0;-585.0
17:13:59.691;217.0;-531.0
17:13:59.695;-427.0;-532.0
17:13:59.699;222.0;-164.0
17:13:59.703;-954.0;-1440.0
17:13:59.707;-423.0;-527.0
17:13:59.711;-4.0;190.0
17:13:59.715;475.0;1039.0
17:13:59.719;1131.0;2271.0
17:13:59.723;1421.0;3039.0
17:13:59.727;713.0;1979.0
17:13:59.731;32.0;687.0
17:13:59.735;-365.0;-7.0
17:13:59.739;-442.0;-241.0
17:13:59.743;-502.0;-349.0
17:13:59.747;-508.0;-449.0
17:13:59.751;-501.0;-528.0
17:13:59.755;-537.0;-543.0
17:13:59.759;-564.0;-543.0
17:13:59.763;-562.0;-505.0
17:13:59.767;-530.0;-484.0
17:13:59.771;-190.0;-63.0
17:13:59.775;-310.0;-215.0
17:13:59.779;-514.0;-450.0
17:13:59.783;2355.0;5239.0
17:13:59.787;364.0;2089.0
17:13:59.791;-162.0;621.0
17:13:59.795;-151.0;260.0
17:13:59.799;238.0;682.0
17:13:59.803;846.0;1745.0
17:13:59.807;861.0;1974.0
17:13:59.811;103.0;639.0
17:14:03.613;-442.0;-373.0
17:14:03.617;-676.0;-874.0
17:14:03.621;-731.0;-1100.0
17:14:03.625;-817.0;-1236.0
17:14:03.629;-725.0;-1127.0
17:14:03.633;-737.0;-1095.0
17:14:03.637;-668.0;-993.0
17:14:03.641;-339.0;-622.0
17:14:03.645;-414.0;-692.0
17:14:03.649;-606.0;-882.0
17:14:03.653;2073.0;3993.0
17:14:03.657;248.0;1320.0
17:14:03.661;-154.0;71.0
17:14:03.665;-114.0;-215.0
17:14:03.669;260.0;261.0
17:14:03.673;899.0;1354.0
17:14:03.677;954.0;1662.0
17:14:03.681;176.0;367.0
17:14:03.685;-340.0;-593.0
17:14:03.689;-512.0;-997.0
17:14:03.693;-537.0;-1153.0
17:14:03.697;-528.0;-1220.0
17:14:03.701;-484.0;-1258.0
17:14:03.705;-476.0;-1275.0
17:14:03.709;-471.0;-1271.0
17:14:03.713;-487.0;-1187.0
17:14:03.717;-480.0;-1138.0
17:14:03.721;-236.0;-902.0
17:14:03.725;-381.0;-1079.0
17:14:03.729;-481.0;-1068.0
17:14:03.733;1541.0;5749.0
17:14:03.737;475.0;2125.0
17:14:03.741;138.0;398.0
17:14:03.745;178.0;-13.0
17:14:03.749;713.0;575.0
17:14:03.753;1175.0;1543.0
17:14:03.757;822.0;1256.0
17:14:03.761;73.0;-79.0
17:14:03.765;-324.0;-891.0
17:14:03.769;-439.0;-1103.0
17:14:03.773;-458.0;-1135.0
17:14:03.777;-409.0;-1185.0
17:14:03.781;-437.0;-1115.0
17:14:03.785;-445.0;-1031.0
17:14:03.789;-475.0;-959.0
17:14:03.793;-372.0;-736.0
17:14:03.797;-288.0;-759.0
17:14:03.801;-460.0;-920.0
17:14:03.805;-280.0;-932.0
17:14:03.809;-726.0;-358.0
17:14:03.813;-425.0;-234.0
17:14:03.817;-160.0;21.0
17:14:03.821;276.0;567.0
17:14:03.825;889.0;1646.0
17:14:03.829;1233.0;2522.0
17:14:03.833;646.0;1643.0
17:14:03.837;-2.0;352.0
17:14:03.841;-337.0;-287.0
17:14:03.845;-367.0;-451.0
17:14:03.849;-364.0;-558.0
17:14:03.853;-401.0;-579.0
17:14:03.857;-466.0;-634.0
17:14:03.861;-445.0;-633.0
17:14:03.865;-469.0;-584.0
17:14:03.869;-439.0;-519.0
17:14:03.873;-347.0;-387.0
17:14:03.877;-213.0;-270.0
17:14:03.881;-384.0;-347.0
17:14:03.885;-340.0;-574.0
17:14:03.889;447.0;3023.0
17:14:03.893;14.0;1338.0
17:14:03.897;-58.0;649.0
17:14:03.901;171.0;666.0
17:14:03.905;688.0;1422.0
17:14:03.909;1094.0;2246.0
17:14:03.913;702.0;1751.0
17:14:03.917;25.0;408.0
17:14:03.921;-330.0;-316.0
17:14:03.925;-438.0;-575.0
17:14:03.929;-467.0;-717.0
17:14:03.933;-482.0;-781.0
17:14:03.937;-533.0;-858.0
17:14:03.941;-510.0;-839.0
17:14:03.945;-499.0;-831.0
17:14:03.949;-482.0;-744.0
17:14:03.953;-457.0;-700.0
17:14:03.957;-384.0;-620.0
17:14:03.961;-213.0;-410.0
17:14:03.965;-369.0;-566.0
17:14:03.969;-342.0;-539.0
17:14:03.973;2461.0;6708.0
17:14:03.977;781.0;2724.0
17:14:03.981;147.0;772.0
17:14:03.985;109.0;247.0
17:14:03.989;515.0;650.0
17:14:03.993;1029.0;1467.0
17:14:03.997;803.0;1377.0
17:14:04.001;66.0;136.0
17:14:04.005;-447.0;-710.0
17:14:04.009;-584.0;-990.0
17:14:07.727;-558.0;-1076.0
17:14:07.731;-650.0;-1239.0
17:14:07.735;-620.0;-1232.0
17:14:07.739;-614.0;-1166.0
17:14:07.743;-503.0;-1059.0
17:14:07.747;-232.0;-839.0
17:14:07.751;-189.0;-868.0
17:14:07.755;-346.0;-927.0
17:14:07.759;477.0;-186.0
17:14:07.763;-926.0;-1650.0
17:14:07.767;-548.0;-898.0
17:14:07.771;-136.0;-302.0
17:14:07.775;360.0;393.0
17:14:07.779;1016.0;1511.0
17:14:07.783;1265.0;2232.0
17:14:07.787;662.0;1404.0
17:14:07.791;36.0;173.0
17:14:07.795;-254.0;-367.0
17:14:07.799;-361.0;-610.0
17:14:07.803;-347.0;-764.0
17:14:07.807;-382.0;-793.0
17:14:07.811;-392.0;-805.0
17:14:07.815;-408.0;-851.0
17:14:07.819;-392.0;-803.0
17:14:07.823;-426.0;-814.0
17:14:07.827;-127.0;-567.0
17:14:07.831;-160.0;-599.0
17:14:07.835;-356.0;-635.0
17:14:07.839;1282.0;2341.0
17:14:07.843;-130.0;600.0
17:14:07.847;-234.0;104.0
17:14:07.851;-69.0;184.0
17:14:07.855;246.0;686.0
17:14:07.859;755.0;1796.0
17:14:07.863;821.0;2239.0
17:14:07.867;231.0;1199.0
17:14:07.871;-343.0;84.0
17:14:07.875;-569.0;-412.0
17:14:07.879;-668.0;-631.0
17:14:07.883;-660.0;-737.0
17:14:07.887;-702.0;-724.0
17:14:07.891;-639.0;-733.0
17:14:07.895;-611.0;-696.0
17:14:07.899;-581.0;-668.0
17:14:07.903;-540.0;-612.0
17:14:07.907;-543.0;-575.0
17:14:07.911;-223.0;-327.0
17:14:07.915;-192.0;-316.0
17:14:07.919;-439.0;-411.0
17:14:07.923;1609.0;2961.0
17:14:07.927;51.0;1064.0
17:14:07.931;-163.0;391.0
17:14:07.935;-111.0;259.0
17:14:07.939;285.0;747.0
17:14:07.943;863.0;1664.0
17:14:07.947;939.0;2024.0
17:14:07.951;286.0;1034.0
17:14:07.955;-308.0;19.0
17:14:07.959;-487.0;-378.0
17:14:07.963;-547.0;-619.0
17:14:07.967;-527.0;-676.0
17:14:07.971;-532.0;-722.0
17:14:07.975;-554.0;-764.0
17:14:07.979;-565.0;-769.0
17:14:07.983;-560.0;-737.0
17:14:07.987;-546.0;-657.0
17:14:07.991;-501.0;-562.0
17:14:07.995;-119.0;-205.0
17:14:07.999;-199.0;-359.0
17:14:08.003;-356.0;-419.0
17:14:08.007;2520.0;4838.0
17:14:08.011;512.0;1977.0
17:14:08.015;-5.0;560.0
17:14:08.019;8.0;141.0
17:14:08.023;377.0;526.0
17:14:08.027;968.0;1345.0
17:14:08.031;937.0;1532.0
17:14:08.035;215.0;404.0
17:14:08.039;-349.0;-531.0
17:14:08.043;-467.0;-789.0
17:14:08.047;-511.0;-979.0
17:14:08.051;-569.0;-1056.0
17:14:08.055;-606.0;-1041.0
17:14:08.059;-596.0;-1056.0
17:14:08.063;-636.0;-1054.0
17:14:08.067;-605.0;-1036.0
17:14:08.071;-499.0;-929.0
17:14:08.075;-188.0;-637.0
17:14:08.079;-197.0;-736.0
17:14:08.083;-416.0;-760.0
17:14:08.087;1920.0;3273.0
17:14:08.091;184.0;981.0
17:14:08.095;-88.0;86.0
17:14:08.099;-5.0;-48.0
17:14:08.103;414.0;472.0
17:14:08.107;927.0;1443.0
17:14:08.111;959.0;1769.0
17:14:08.115;251.0;644.0
17:14:08.119;-311.0;-341.0
17:14:08.123;-482.0;-723.0
17:14:12.027;-480.0;-862.0
17:14:12.031;-603.0;-1079.0
17:14:12.035;-552.0;-1049.0
17:14:12.039;-316.0;-744.0
17:14:12.043;-433.0;-977.0
17:14:12.047;-522.0;-1000.0
17:14:12.051;2444.0;6232.0
17:14:12.055;687.0;2374.0
17:14:12.059;104.0;531.0
17:14:12.063;24.0;18.0
17:14:12.067;397.0;424.0
17:14:12.071;823.0;1244.0
17:14:12.075;691.0;1185.0
17:14:12.079;-41.0;-54.0
17:14:12.083;-454.0;-802.0
17:14:12.087;-563.0;-1021.0
17:14:12.091;-524.0;-1160.0
17:14:12.095;-529.0;-1197.0
17:14:12.099;-576.0;-1228.0
17:14:12.103;-602.0;-1222.0
17:14:12.107;-610.0;-1172.0
17:14:12.111;-549.0;-1058.0
17:14:12.115;-307.0;-731.0
17:14:12.119;-464.0;-892.0
17:14:12.123;-558.0;-891.0
17:14:12.127;2465.0;6543.0
17:14:12.131;674.0;2535.0
17:14:12.135;26.0;553.0
17:14:12.139;-55.0;-51.0
17:14:12.143;241.0;279.0
17:14:12.147;675.0;1128.0
17:14:12.151;518.0;1126.0
17:14:12.155;-189.0;-68.0
17:14:12.159;-577.0;-845.0
17:14:12.163;-686.0;-1091.0
17:14:12.167;-726.0;-1188.0
17:14:12.171;-730.0;-1260.0
17:14:12.175;-700.0;-1245.0
17:14:12.179;-720.0;-1236.0
17:14:12.183;-707.0;-1171.0
17:14:12.187;-701.0;-1108.0
17:14:12.191;-666.0;-1059.0
17:14:12.195;-405.0;-761.0
17:14:12.199;-578.0;-969.0
17:14:12.203;-692.0;-959.0
17:14:12.207;2558.0;6402.0
17:14:12.211;720.0;2429.0
17:14:12.215;48.0;522.0
17:14:12.219;-32.0;-23.0
17:14:12.223;319.0;331.0
17:14:12.227;734.0;1086.0
17:14:12.231;551.0;1008.0
17:14:12.235;-199.0;-169.0
17:14:12.239;-629.0;-932.0
17:14:12.243;-679.0;-1192.0
17:14:12.247;-717.0;-1264.0
17:14:12.251;-740.0;-1332.0
17:14:12.255;-748.0;-1373.0
17:14:12.259;-737.0;-1328.0
17:14:12.263;-737.0;-1280.0
17:14:12.267;-622.0;-1165.0
17:14:12.271;-568.0;-1043.0
17:14:12.275;-337.0;-722.0
17:14:12.279;-210.0;-680.0
17:14:12.283;-516.0;-856.0
17:14:12.287;228.0;-266.0
17:14:12.291;-1070.0;-1551.0
17:14:12.295;-663.0;-884.0
17:14:12.299;-232.0;-270.0
17:14:12.303;296.0;474.0
17:14:12.307;907.0;1447.0
17:14:12.311;1152.0;2068.0
17:14:12.315;552.0;1432.0
17:14:12.319;-38.0;327.0
17:14:12.323;-280.0;-97.0
17:14:12.327;-296.0;-350.0
17:14:12.331;-358.0;-453.0
17:14:12.335;-385.0;-587.0
17:14:12.339;-392.0;-614.0
17:14:12.343;-341.0;-643.0
17:14:12.347;-324.0;-577.0
17:14:12.351;-306.0;-578.0
17:14:12.355;1.0;-260.0
17:14:12.359;21.0;-264.0
17:14:12.363;-211.0;-400.0
17:14:12.367;1185.0;1470.0
17:14:12.371;-296.0;-277.0
17:14:12.375;-152.0;-157.0
17:14:12.379;49.0;119.0
17:14:12.383;459.0;746.0
17:14:12.387;1025.0;1744.0
17:14:12.391;1189.0;2324.0
17:14:12.395;599.0;1419.0
17:14:12.399;-15.0;315.0
17:14:12.403;-256.0;-189.0
17:14:12.407;-334.0;-446.0
17:14:12.411;-331.0;-556.0
17:14:12.415;-398.0;-698.0
17:14:12.419;-433.0;-780.0
17:14:12.423;-441.0;-807.0
17:14:16.140;-387.0;-861.0
17:14:16.144;760.0;1057.0
17:14:16.148;-468.0;-175.0
17:14:16.152;-397.0;-166.0
17:14:16.156;-155.0;96.0
17:14:16.160;249.0;692.0
17:14:16.164;735.0;1650.0
17:14:16.168;917.0;2259.0
17:14:16.172;338.0;1277.0
17:14:16.176;-161.0;131.0
17:14:16.180;-372.0;-219.0
17:14:16.184;-503.0;-535.0
17:14:16.188;-542.0;-773.0
17:14:16.192;-631.0;-934.0
17:14:16.196;-630.0;-931.0
17:14:16.200;-585.0;-843.0
17:14:16.204;-599.0;-790.0
17:14:16.208;-363.0;-545.0
17:14:16.212;-275.0;-575.0
17:14:16.216;-506.0;-747.0
17:14:16.220;248.0;-4.0
17:14:16.224;-956.0;-1118.0
17:14:16.228;-603.0;-457.0
17:14:16.232;-212.0;-2.0
17:14:16.236;209.0;599.0
17:14:16.240;769.0;1584.0
17:14:16.244;994.0;2143.0
17:14:16.248;480.0;1420.0
17:14:16.252;-64.0;306.0
17:14:16.256;-328.0;-208.0
17:14:16.260;-431.0;-466.0
17:14:16.264;-485.0;-653.0
17:14:16.268;-521.0;-700.0
17:14:16.272;-509.0;-713.0
17:14:16.276;-513.0;-743.0
17:14:16.280;-511.0;-702.0
17:14:16.284;-349.0;-575.0
17:14:16.288;-188.0;-528.0
17:14:16.292;-451.0;-658.0
17:14:16.296;-241.0;-953.0
17:14:16.300;-964.0;-520.0
17:14:16.304;-522.0;-320.0
17:14:16.308;-134.0;-94.0
17:14:16.312;306.0;378.0
17:14:16.316;941.0;1246.0
17:14:16.320;1306.0;1927.0
17:14:16.324;827.0;1348.0
17:14:16.328;218.0;282.0
17:14:16.332;-15.0;-289.0
17:14:16.336;-110.0;-501.0
17:14:16.340;-198.0;-678.0
17:14:16.344;-264.0;-770.0
17:14:16.348;-324.0;-861.0
17:14:16.352;-345.0;-876.0
17:14:16.356;-314.0;-849.0
17:14:16.360;-70.0;-671.0
17:14:16.364;-56.0;-721.0
17:14:16.368;-318.0;-853.0
17:14:16.372;1230.0;1470.0
17:14:16.376;-343.0;-485.0
17:14:16.380;-315.0;-494.0
17:14:16.384;-34.0;-175.0
17:14:16.388;394.0;408.0
17:14:16.392;977.0;1421.0
17:14:16.396;1080.0;1809.0
17:14:16.400;451.0;925.0
17:14:16.404;-108.0;-40.0
17:14:16.408;-268.0;-383.0
17:14:16.412;-334.0;-584.0
17:14:16.416;-376.0;-766.0
17:14:16.420;-407.0;-776.0
17:14:16.424;-381.0;-756.0
17:14:16.428;-431.0;-766.0
17:14:16.432;-147.0;-431.0
17:14:16.436;-121.0;-488.0
17:14:16.440;-349.0;-600.0
17:14:16.444;390.0;52.0
17:14:16.448;-935.0;-1383.0
17:14:16.452;-573.0;-675.0
17:14:16.456;-215.0;-78.0
17:14:16.460;250.0;672.0
17:14:16.464;898.0;1704.0
17:14:16.468;1050.0;2177.0
17:14:16.472;475.0;1261.0
17:14:16.476;-109.0;252.0
17:14:16.480;-311.0;-146.0
17:14:16.484;-338.0;-277.0
17:14:16.488;-381.0;-382.0
17:14:16.492;-454.0;-509.0
17:14:16.496;-487.0;-556.0
17:14:16.500;-514.0;-534.0
17:14:16.504;-511.0;-443.0
17:14:16.508;-275.0;-176.0
17:14:16.512;-117.0;-199.0
17:14:16.516;-361.0;-399.0
17:14:16.520;80.0;-365.0
17:14:16.524;-1129.0;-1342.0
17:14:16.528;-550.0;-456.0
17:14:16.532;-105.0;168.0
17:14:16.536;371.0;900.0
17:14:20.487;1008.0;1810.0
17:14:20.491;330.0;807.0
17:14:20.495;43.0;375.0
17:14:20.499;-37.0;141.0
17:14:20.503;-128.0;-69.0
17:14:20.507;-183.0;-146.0
17:14:20.511;-285.0;-261.0
17:14:20.515;-380.0;-293.0
17:14:20.519;-442.0;-337.0
17:14:20.523;-396.0;-260.0
17:14:20.527;-6.0;-78.0
17:14:20.531;-81.0;-145.0
17:14:20.535;-332.0;-239.0
17:14:20.539;2189.0;4163.0
17:14:20.543;378.0;1738.0
17:14:20.547;30.0;625.0
17:14:20.551;64.0;312.0
17:14:20.555;404.0;596.0
17:14:20.559;902.0;1398.0
17:14:20.563;996.0;1725.0
17:14:20.567;315.0;705.0
17:14:20.571;-150.0;-152.0
17:14:20.575;-321.0;-522.0
17:14:20.579;-361.0;-718.0
17:14:20.583;-383.0;-848.0
17:14:20.587;-394.0;-879.0
17:14:20.591;-455.0;-931.0
17:14:20.595;-446.0;-958.0
17:14:20.599;-391.0;-890.0
17:14:20.603;-208.0;-711.0
17:14:20.607;-66.0;-618.0
17:14:20.611;-283.0;-777.0
17:14:20.615;39.0;-829.0
17:14:20.619;-1113.0;-1710.0
17:14:20.623;-539.0;-836.0
17:14:20.627;-25.0;-58.0
17:14:20.631;420.0;623.0
17:14:20.635;1044.0;1610.0
17:14:20.639;1326.0;2310.0
17:14:20.643;831.0;1647.0
17:14:20.647;198.0;548.0
17:14:20.651;-76.0;-47.0
17:14:20.655;-174.0;-331.0
17:14:20.659;-215.0;-463.0
17:14:20.663;-283.0;-590.0
17:14:20.667;-350.0;-646.0
17:14:20.671;-360.0;-643.0
17:14:20.675;-287.0;-615.0
17:14:20.679;-161.0;-469.0
17:14:20.683;-64.0;-483.0
17:14:20.687;-263.0;-630.0
17:14:20.691;243.0;-395.0
17:14:20.695;-1055.0;-1579.0
17:14:20.699;-440.0;-689.0
17:14:20.703;-61.0;-60.0
17:14:20.707;424.0;684.0
17:14:20.711;999.0;1617.0
17:14:20.715;1249.0;2242.0
17:14:20.719;681.0;1485.0
17:14:20.723;70.0;348.0
17:14:20.727;-270.0;-214.0
17:14:20.731;-331.0;-409.0
17:14:20.735;-377.0;-555.0
17:14:20.739;-369.0;-600.0
17:14:20.743;-433.0;-693.0
17:14:20.747;-448.0;-742.0
17:14:20.751;-456.0;-633.0
17:14:20.755;-464.0;-643.0
17:14:20.759;-231.0;-353.0
17:14:20.763;-108.0;-426.0
17:14:20.767;-294.0;-532.0
17:14:20.771;454.0;69.0
17:14:20.775;-831.0;-1130.0
17:14:20.779;-357.0;-430.0
17:14:20.783;11.0;77.0
17:14:20.787;430.0;724.0
17:14:20.791;1030.0;1649.0
17:14:20.795;1339.0;2264.0
17:14:20.799;824.0;1539.0
17:14:20.803;167.0;361.0
17:14:20.807;-118.0;-149.0
17:14:20.811;-259.0;-422.0
17:14:20.815;-296.0;-551.0
17:14:20.819;-340.0;-647.0
17:14:20.823;-386.0;-663.0
17:14:20.827;-424.0;-723.0
17:14:20.831;-464.0;-704.0
17:14:20.835;-405.0;-629.0
17:14:20.839;-149.0;-391.0
17:14:20.843;-57.0;-346.0
17:14:20.847;-340.0;-462.0
17:14:20.851;1133.0;1399.0
17:14:20.855;-415.0;-67.0
17:14:20.859;-271.0;-80.0
17:14:20.863;24.0;204.0
17:14:20.867;424.0;747.0
17:14:20.871;1028.0;1684.0
17:14:20.875;1193.0;2150.0
17:14:20.879;541.0;1278.0
17:14:20.883;-42.0;210.0
17:14:24.530;-286.0;-295.0
17:14:24.534;-398.0;-603.0
17:14:24.538;-496.0;-767.0
17:14:24.542;-506.0;-832.0
17:14:24.546;-461.0;-777.0
17:14:24.550;-253.0;-544.0
17:14:24.554;-89.0;-535.0
17:14:24.558;-314.0;-659.0
17:14:24.562;87.0;-686.0
17:14:24.566;-1266.0;-1751.0
17:14:24.570;-558.0;-750.0
17:14:24.574;-19.0;-81.0
17:14:24.578;428.0;641.0
17:14:24.582;1078.0;1708.0
17:14:24.586;1363.0;2367.0
17:14:24.590;839.0;1703.0
17:14:24.594;187.0;583.0
17:14:24.598;-103.0;80.0
17:14:24.602;-188.0;-196.0
17:14:24.606;-234.0;-341.0
17:14:24.610;-302.0;-446.0
17:14:24.614;-317.0;-443.0
17:14:24.618;-389.0;-443.0
17:14:24.622;-319.0;-356.0
17:14:24.626;-163.0;-138.0
17:14:24.630;-62.0;-113.0
17:14:24.634;-306.0;-320.0
17:14:24.638;62.0;-344.0
17:14:24.642;-1140.0;-1211.0
17:14:24.646;-540.0;-306.0
17:14:24.650;-62.0;294.0
17:14:24.654;424.0;950.0
17:14:24.658;1039.0;2012.0
17:14:24.662;1328.0;2658.0
17:14:24.666;811.0;1950.0
17:14:24.670;169.0;765.0
17:14:24.674;-135.0;146.0
17:14:24.678;-254.0;-183.0
17:14:24.682;-308.0;-311.0
17:14:24.686;-327.0;-380.0
17:14:24.690;-405.0;-454.0
17:14:24.694;-447.0;-497.0
17:14:24.698;-427.0;-477.0
17:14:24.702;-383.0;-431.0
17:14:24.706;-228.0;-308.0
17:14:24.710;-129.0;-162.0
17:14:24.714;-389.0;-397.0
17:14:24.718;66.0;-410.0
17:14:24.722;-1219.0;-1211.0
17:14:24.726;-609.0;-342.0
17:14:24.730;-160.0;246.0
17:14:24.734;284.0;895.0
17:14:24.738;854.0;1886.0
17:14:24.742;1153.0;2473.0
17:14:24.746;618.0;1768.0
17:14:24.750;-29.0;610.0
17:14:24.754;-283.0;95.0
17:14:24.758;-379.0;-74.0
17:14:24.762;-422.0;-287.0
17:14:24.766;-417.0;-409.0
17:14:24.770;-454.0;-457.0
17:14:24.774;-486.0;-483.0
17:14:24.778;-470.0;-489.0
17:14:24.782;-439.0;-437.0
17:14:24.786;-186.0;-195.0
17:14:24.790;-350.0;-406.0
17:14:24.794;-380.0;-460.0
17:14:24.798;1944.0;6482.0
17:14:24.802;664.0;2700.0
17:14:24.806;248.0;870.0
17:14:24.810;300.0;338.0
17:14:24.814;741.0;818.0
17:14:24.818;1183.0;1571.0
17:14:24.822;904.0;1340.0
17:14:24.826;102.0;46.0
17:14:24.830;-296.0;-653.0
17:14:24.834;-308.0;-828.0
17:14:24.838;-367.0;-951.0
17:14:24.842;-371.0;-1049.0
17:14:24.846;-440.0;-1109.0
17:14:24.850;-418.0;-1081.0
17:14:24.854;-412.0;-1018.0
17:14:24.858;-117.0;-674.0
17:14:24.862;-249.0;-827.0
17:14:24.866;-421.0;-938.0
17:14:24.870;2446.0;5263.0
17:14:24.874;608.0;2012.0
17:14:24.878;100.0;382.0
17:14:24.882;90.0;-32.0
17:14:24.886;444.0;292.0
17:14:24.890;982.0;1178.0
17:14:24.894;860.0;1277.0
17:14:24.898;126.0;89.0
17:14:24.902;-322.0;-696.0
17:14:24.906;-445.0;-952.0
17:14:24.910;-459.0;-1056.0
17:14:24.914;-539.0;-1148.0
17:14:24.918;-534.0;-1165.0
17:14:24.922;-567.0;-1131.0
17:14:24.926;-494.0;-1061.0
17:14:28.849;-485.0;-964.0
17:14:28.853;-216.0;-1259.0
17:14:28.857;-812.0;-838.0
17:14:28.861;-428.0;-623.0
17:14:28.865;-101.0;-356.0
17:14:28.869;326.0;172.0
17:14:28.873;937.0;1197.0
17:14:28.877;1321.0;1883.0
17:14:28.881;772.0;1215.0
17:14:28.885;77.0;12.0
17:14:28.889;-180.0;-464.0
17:14:28.893;-266.0;-623.0
17:14:28.897;-363.0;-716.0
17:14:28.901;-486.0;-798.0
17:14:28.905;-532.0;-879.0
17:14:28.909;-520.0;-904.0
17:14:28.913;-456.0;-769.0
17:14:28.917;-429.0;-689.0
17:14:28.921;-159.0;-410.0
17:14:28.925;-337.0;-729.0
17:14:28.929;-457.0;-764.0
17:14:28.933;2716.0;5610.0
17:14:28.937;765.0;2109.0
17:14:28.941;187.0;527.0
17:14:28.945;190.0;116.0
17:14:28.949;482.0;379.0
17:14:28.953;933.0;1187.0
17:14:28.957;782.0;1220.0
17:14:28.961;8.0;146.0
17:14:28.965;-511.0;-876.0
17:14:28.969;-694.0;-1028.0
17:14:28.973;-710.0;-1098.0
17:14:28.977;-799.0;-1130.0
17:14:28.981;-812.0;-1125.0
17:14:28.985;-790.0;-1021.0
17:14:28.989;-731.0;-906.0
17:14:28.993;-642.0;-733.0
17:14:28.997;-275.0;-296.0
17:14:29.001;-268.0;-400.0
17:14:29.005;-507.0;-479.0
17:14:29.009;2267.0;4960.0
17:14:29.013;273.0;2029.0
17:14:29.017;-234.0;574.0
17:14:29.021;-233.0;165.0
17:14:29.025;160.0;547.0
17:14:29.029;717.0;1430.0
17:14:29.033;721.0;1607.0
17:14:29.037;-152.0;396.0
17:14:29.041;-642.0;-573.0
17:14:29.045;-978.0;-1266.0
17:14:29.049;-629.0;-877.0
17:14:29.053;-398.0;-1263.0
17:14:29.057;-417.0;-1023.0
17:14:29.061;-490.0;-1029.0
17:14:29.065;-645.0;-1079.0
17:14:29.069;-1498.0;-1026.0
17:14:29.073;-677.0;-611.0
17:14:29.077;-581.0;-838.0
17:14:29.081;-586.0;-903.0
17:14:29.085;2976.0;5681.0
17:14:29.089;871.0;2181.0
17:14:29.093;921.0;479.0
17:14:29.097;511.0;34.0
17:14:29.101;1263.0;437.0
17:14:29.105;1157.0;1235.0
17:14:29.109;650.0;1171.0
17:14:29.113;-89.0;-88.0
17:14:29.117;-977.0;-888.0
17:14:29.121;-518.0;-1103.0
17:14:29.125;-476.0;-1257.0
17:14:29.129;-1123.0;-1276.0
17:14:29.133;-625.0;-1251.0
17:14:29.137;-1414.0;-1208.0
17:14:29.141;-739.0;-1187.0
17:14:29.145;-629.0;-801.0
17:14:29.149;408.0;-1151.0
17:14:29.153;-147.0;-1056.0
17:14:29.157;2175.0;5365.0
17:14:29.161;475.0;2072.0
17:14:29.165;878.0;360.0
17:14:29.169;-1131.0;-68.0
17:14:29.173;-3289.0;311.0
17:14:29.177;-299.0;1158.0
17:14:29.181;-573.0;1306.0
17:14:29.185;-111.0;87.0
17:14:29.189;133.0;-744.0
17:14:29.193;271.0;-997.0
17:14:29.197;-167.0;-1141.0
17:14:29.201;-85.0;-1138.0
17:14:29.205;-15.0;-1118.0
17:14:29.209;169.0;-1014.0
17:14:29.213;-1032.0;-919.0
17:14:29.217;-32.0;-613.0
17:14:29.221;20.0;-745.0
17:14:29.225;141.0;-832.0
17:14:29.229;1299.0;2537.0
17:14:29.233;140.0;527.0
17:14:29.237;113.0;-215.0
17:14:29.241;154.0;-359.0
17:14:29.245;589.0;39.0
17:14:33.206;1107.0;847.0
17:14:33.210;95.0;-262.0
17:14:33.214;-87.0;-535.0
17:14:33.218;166.0;-553.0
17:14:33.222;-278.0;-632.0
17:14:33.226;23.0;-541.0
17:14:33.230;-166.0;-581.0
17:14:33.234;-202.0;-518.0
17:14:33.238;-1706.0;-227.0
17:14:33.242;-700.0;-374.0
17:14:33.246;-1886.0;-506.0
17:14:33.250;2015.0;5113.0
17:14:33.254;744.0;2247.0
17:14:33.258;620.0;754.0
17:14:33.262;491.0;345.0
17:14:33.266;996.0;661.0
17:14:33.270;270.0;1406.0
17:14:33.274;952.0;1531.0
17:14:33.278;564.0;402.0
17:14:33.282;166.0;-522.0
17:14:33.286;-405.0;-880.0
17:14:33.290;-172.0;-1027.0
17:14:33.294;-314.0;-1145.0
17:14:33.298;-247.0;-1137.0
17:14:33.302;-336.0;-1139.0
17:14:33.306;-551.0;-1006.0
17:14:33.310;-112.0;-818.0
17:14:33.314;-578.0;-933.0
17:14:33.318;-425.0;-897.0
17:14:33.322;905.0;5826.0
17:14:33.326;373.0;2294.0
17:14:33.330;328.0;714.0
17:14:33.334;-135.0;196.0
17:14:33.338;820.0;705.0
17:14:33.342;1035.0;1484.0
17:14:33.346;1014.0;1128.0
17:14:33.350;135.0;-54.0
17:14:33.354;-106.0;-642.0
17:14:33.358;-313.0;-876.0
17:14:33.362;-221.0;-968.0
17:14:33.366;-1048.0;-1066.0
17:14:33.370;-799.0;-1025.0
17:14:33.374;-580.0;-1013.0
17:14:33.378;-362.0;-954.0
17:14:33.382;-79.0;-673.0
17:14:33.386;49.0;-689.0
17:14:33.390;-472.0;-716.0
17:14:33.394;1696.0;3247.0
17:14:33.398;92.0;1171.0
17:14:33.402;-290.0;161.0
17:14:33.406;-169.0;67.0
17:14:33.410;236.0;545.0
17:14:33.414;839.0;1464.0
17:14:33.418;868.0;1788.0
17:14:33.422;158.0;732.0
17:14:33.426;-400.0;-242.0
17:14:33.430;-660.0;-675.0
17:14:33.434;-718.0;-816.0
17:14:33.438;-627.0;-888.0
17:14:33.442;-567.0;-879.0
17:14:33.446;-596.0;-915.0
17:14:33.450;-515.0;-863.0
17:14:33.454;-460.0;-783.0
17:14:33.458;-196.0;-492.0
17:14:33.462;-272.0;-692.0
17:14:33.466;-497.0;-774.0
17:14:33.470;2083.0;4610.0
17:14:33.474;427.0;1761.0
17:14:33.478;49.0;376.0
17:14:33.482;29.0;-13.0
17:14:33.486;414.0;422.0
17:14:33.490;966.0;1270.0
17:14:33.494;871.0;1407.0
17:14:33.498;147.0;171.0
17:14:33.502;-355.0;-678.0
17:14:33.506;-465.0;-992.0
17:14:33.510;-493.0;-1116.0
17:14:33.514;-499.0;-1203.0
17:14:33.518;-518.0;-1205.0
17:14:33.522;-545.0;-1179.0
17:14:33.526;-521.0;-1082.0
17:14:33.530;-301.0;-925.0
17:14:33.534;-489.0;-987.0
17:14:33.538;-493.0;-918.0
17:14:33.542;981.0;5217.0
17:14:33.546;201.0;2008.0
17:14:33.550;-44.0;542.0
17:14:33.554;109.0;183.0
17:14:33.558;627.0;710.0
17:14:33.562;1128.0;1522.0
17:14:33.566;657.0;1103.0
17:14:33.570;-62.0;-163.0
17:14:33.574;-473.0;-822.0
17:14:33.578;-503.0;-1023.0
17:14:33.582;-542.0;-1080.0
17:14:33.586;-601.0;-1112.0
17:14:33.590;-658.0;-1129.0
17:14:33.594;-611.0;-1026.0
17:14:33.598;-562.0;-904.0
17:14:33.602;-239.0;-570.0
17:14:37.259;-383.0;-814.0
17:14:37.263;-340.0;-537.0
17:14:37.267;-28.0;-93.0
17:14:37.271;432.0;605.0
17:14:37.275;1136.0;1723.0
17:14:37.279;1078.0;1885.0
17:14:37.283;372.0;762.0
17:14:37.287;-189.0;-168.0
17:14:37.291;-292.0;-398.0
17:14:37.295;-406.0;-655.0
17:14:37.299;-473.0;-756.0
17:14:37.303;-519.0;-845.0
17:14:37.307;-538.0;-865.0
17:14:37.311;-517.0;-829.0
17:14:37.315;-498.0;-766.0
17:14:37.319;-209.0;-447.0
17:14:37.323;-393.0;-711.0
17:14:37.327;-472.0;-734.0
17:14:37.331;2758.0;6125.0
17:14:37.335;937.0;2575.0
17:14:37.339;253.0;754.0
17:14:37.343;203.0;169.0
17:14:37.347;524.0;469.0
17:14:37.351;986.0;1248.0
17:14:37.355;805.0;1220.0
17:14:37.359;34.0;-2.0
17:14:37.363;-420.0;-710.0
17:14:37.367;-604.0;-988.0
17:14:37.371;-634.0;-1142.0
17:14:37.375;-645.0;-1202.0
17:14:37.379;-679.0;-1188.0
17:14:37.383;-654.0;-1134.0
17:14:37.387;-628.0;-1107.0
17:14:37.391;-595.0;-1046.0
17:14:37.395;-240.0;-858.0
17:14:37.399;-232.0;-839.0
17:14:37.403;-435.0;-852.0
17:14:37.407;1363.0;2059.0
17:14:37.411;-152.0;246.0
17:14:37.415;-265.0;-217.0
17:14:37.419;-91.0;-144.0
17:14:37.423;293.0;387.0
17:14:37.427;879.0;1474.0
17:14:37.431;1006.0;1845.0
17:14:37.435;318.0;759.0
17:14:37.439;-235.0;-309.0
17:14:37.443;-385.0;-711.0
17:14:37.447;-407.0;-868.0
17:14:37.451;-423.0;-970.0
17:14:37.455;-465.0;-991.0
17:14:37.459;-506.0;-1065.0
17:14:37.463;-493.0;-1108.0
17:14:37.467;-403.0;-1011.0
17:14:37.471;-186.0;-704.0
17:14:37.475;-332.0;-894.0
17:14:37.479;-422.0;-890.0
17:14:37.483;2121.0;5891.0
17:14:37.487;640.0;2266.0
17:14:37.491;162.0;531.0
17:14:37.495;174.0;106.0
17:14:37.499;549.0;531.0
17:14:37.503;1073.0;1467.0
17:14:37.507;865.0;1447.0
17:14:37.511;153.0;135.0
17:14:37.515;-300.0;-661.0
17:14:37.519;-502.0;-993.0
17:14:37.523;-548.0;-1072.0
17:14:37.527;-530.0;-1158.0
17:14:37.531;-568.0;-1176.0
17:14:37.535;-557.0;-1105.0
17:14:37.539;-549.0;-1031.0
17:14:37.543;-372.0;-875.0
17:14:37.547;-261.0;-840.0
17:14:37.551;-451.0;-899.0
17:14:37.555;-230.0;-1001.0
17:14:37.559;-608.0;-38.0
17:14:37.563;-371.0;-40.0
17:14:37.567;-98.0;53.0
17:14:37.571;330.0;521.0
17:14:37.575;945.0;1487.0
17:14:37.579;1309.0;2244.0
17:14:37.583;792.0;1610.0
17:14:37.587;64.0;355.0
17:14:37.591;-288.0;-292.0
17:14:37.595;-366.0;-470.0
17:14:37.599;-411.0;-615.0
17:14:37.603;-437.0;-658.0
17:14:37.607;-470.0;-696.0
17:14:37.611;-443.0;-720.0
17:14:37.615;-396.0;-666.0
17:14:37.619;-102.0;-429.0
17:14:37.623;-83.0;-482.0
17:14:37.627;-345.0;-594.0
17:14:37.631;675.0;544.0
17:14:37.635;-678.0;-755.0
17:14:37.639;-440.0;-319.0
17:14:37.643;-48.0;132.0
17:14:37.647;409.0;810.0
17:14:37.651;1093.0;1939.0
17:14:37.655;1294.0;2474.0
17:14:41.300;586.0;1441.0
17:14:41.304;17.0;340.0
17:14:41.308;-267.0;-209.0
17:14:41.312;-407.0;-476.0
17:14:41.316;-600.0;-809.0
17:14:41.320;-609.0;-805.0
17:14:41.324;-523.0;-714.0
17:14:41.328;-275.0;-480.0
17:14:41.332;-441.0;-724.0
17:14:41.336;-576.0;-824.0
17:14:41.340;2520.0;6130.0
17:14:41.344;776.0;2398.0
17:14:41.348;149.0;512.0
17:14:41.352;92.0;-12.0
17:14:41.356;437.0;350.0
17:14:41.360;966.0;1138.0
17:14:41.364;739.0;1023.0
17:14:41.368;36.0;-212.0
17:14:41.372;-406.0;-1014.0
17:14:41.376;-505.0;-1302.0
17:14:41.380;-549.0;-1343.0
17:14:41.384;-588.0;-1379.0
17:14:41.388;-658.0;-1364.0
17:14:41.392;-604.0;-1330.0
17:14:41.396;-554.0;-1164.0
17:14:41.400;-241.0;-922.0
17:14:41.404;-318.0;-887.0
17:14:41.408;-543.0;-887.0
17:14:41.412;943.0;1409.0
17:14:41.416;-375.0;-106.0
17:14:41.420;-302.0;-130.0
17:14:41.424;-81.0;106.0
17:14:41.428;345.0;768.0
17:14:41.432;1041.0;1920.0
17:14:41.436;1212.0;2402.0
17:14:41.440;503.0;1277.0
17:14:41.444;-122.0;207.0
17:14:41.448;-347.0;-175.0
17:14:41.452;-390.0;-344.0
17:14:41.456;-460.0;-437.0
17:14:41.460;-534.0;-611.0
17:14:41.464;-554.0;-641.0
17:14:41.468;-597.0;-643.0
17:14:41.472;-497.0;-574.0
17:14:41.476;-292.0;-353.0
17:14:41.480;-386.0;-545.0
17:14:41.484;-486.0;-582.0
17:14:41.488;2335.0;6778.0
17:14:41.492;717.0;2773.0
17:14:41.496;168.0;843.0
17:14:41.500;137.0;222.0
17:14:41.504;583.0;609.0
17:14:41.508;1067.0;1373.0
17:14:41.512;813.0;1162.0
17:14:41.516;67.0;-57.0
17:14:41.520;-399.0;-833.0
17:14:41.524;-530.0;-1053.0
17:14:41.528;-555.0;-1174.0
17:14:41.532;-567.0;-1213.0
17:14:41.536;-607.0;-1222.0
17:14:41.540;-610.0;-1198.0
17:14:41.544;-589.0;-1132.0
17:14:41.548;-411.0;-920.0
17:14:41.552;-284.0;-873.0
17:14:41.556;-384.0;-949.0
17:14:41.560;-327.0;-1067.0
17:14:41.564;-9.0;2366.0
17:14:41.568;-120.0;891.0
17:14:41.572;71.0;376.0
17:14:41.576;391.0;440.0
17:14:41.580;995.0;1183.0
17:14:41.584;1416.0;1951.0
17:14:41.588;932.0;1398.0
17:14:41.592;225.0;147.0
17:14:41.596;-220.0;-463.0
17:14:41.600;-294.0;-604.0
17:14:41.604;-353.0;-814.0
17:14:41.608;-414.0;-882.0
17:14:41.612;-481.0;-895.0
17:14:41.616;-457.0;-900.0
17:14:41.620;-415.0;-748.0
17:14:41.624;-81.0;-318.0
17:14:41.628;-271.0;-574.0
17:14:41.632;-444.0;-695.0
17:14:41.636;2010.0;4276.0
17:14:41.640;378.0;1642.0
17:14:41.644;-7.0;428.0
17:14:41.648;43.0;186.0
17:14:41.652;401.0;689.0
17:14:41.656;946.0;1663.0
17:14:41.660;956.0;1867.0
17:14:41.664;161.0;613.0
17:14:41.668;-380.0;-311.0
17:14:41.672;-520.0;-700.0
17:14:41.676;-447.0;-816.0
17:14:41.680;-489.0;-948.0
17:14:41.684;-524.0;-1014.0
17:14:41.688;-514.0;-1019.0
17:14:41.692;-497.0;-969.0
17:14:41.696;-106.0;-706.0
17:14:45.676;-49.0;-641.0
17:14:45.680;-439.0;-275.0
17:14:45.684;-288.0;-202.0
17:14:45.688;9.0;165.0
17:14:45.692;525.0;1012.0
17:14:45.696;1114.0;2065.0
17:14:45.700;1000.0;2170.0
17:14:45.704;303.0;949.0
17:14:45.708;-205.0;65.0
17:14:45.712;-375.0;-251.0
17:14:45.716;-384.0;-370.0
17:14:45.720;-380.0;-493.0
17:14:45.724;-394.0;-588.0
17:14:45.728;-451.0;-688.0
17:14:45.732;-443.0;-624.0
17:14:45.736;-106.0;-292.0
17:14:45.740;-57.0;-331.0
17:14:45.744;-284.0;-468.0
17:14:45.748;608.0;526.0
17:14:45.752;-720.0;-885.0
17:14:45.756;-362.0;-382.0
17:14:45.760;-42.0;117.0
17:14:45.764;501.0;821.0
17:14:45.768;1117.0;1875.0
17:14:45.772;1331.0;2451.0
17:14:45.776;601.0;1421.0
17:14:45.780;-35.0;266.0
17:14:45.784;-303.0;-177.0
17:14:45.788;-348.0;-379.0
17:14:45.792;-379.0;-469.0
17:14:45.796;-426.0;-594.0
17:14:45.800;-417.0;-591.0
17:14:45.804;-443.0;-664.0
17:14:45.808;-419.0;-564.0
17:14:45.812;-102.0;-259.0
17:14:45.816;-232.0;-448.0
17:14:45.820;-457.0;-606.0
17:14:45.824;2329.0;4797.0
17:14:45.828;457.0;1903.0
17:14:45.832;-36.0;400.0
17:14:45.836;22.0;-6.0
17:14:45.840;433.0;378.0
17:14:45.844;938.0;1216.0
17:14:45.848;906.0;1308.0
17:14:45.852;109.0;74.0
17:14:45.856;-481.0;-759.0
17:14:45.860;-611.0;-1157.0
17:14:45.864;-567.0;-1223.0
17:14:45.868;-570.0;-1317.0
17:14:45.872;-605.0;-1368.0
17:14:45.876;-612.0;-1374.0
17:14:45.880;-633.0;-1350.0
17:14:45.884;-553.0;-1296.0
17:14:45.888;-318.0;-1112.0
17:14:45.892;-463.0;-1204.0
17:14:45.896;-534.0;-1309.0
17:14:45.900;948.0;4659.0
17:14:45.904;258.0;1574.0
17:14:45.908;66.0;182.0
17:14:45.912;176.0;-190.0
17:14:45.916;704.0;345.0
17:14:45.920;1136.0;1108.0
17:14:45.924;796.0;835.0
17:14:45.928;62.0;-426.0
17:14:45.932;-287.0;-1106.0
17:14:45.936;-395.0;-1357.0
17:14:45.940;-377.0;-1358.0
17:14:45.944;-449.0;-1403.0
17:14:45.948;-449.0;-1333.0
17:14:45.952;-488.0;-1366.0
17:14:45.956;-504.0;-1355.0
17:14:45.960;-323.0;-1134.0
17:14:45.964;-463.0;-1336.0
17:14:45.968;-498.0;-1265.0
17:14:45.972;1979.0;5927.0
17:14:45.976;561.0;2139.0
17:14:45.980;133.0;314.0
17:14:45.984;127.0;-186.0
17:14:45.988;535.0;226.0
17:14:45.992;1058.0;1125.0
17:14:45.996;890.0;908.0
17:14:46.000;143.0;-298.0
17:14:46.004;-329.0;-1018.0
17:14:46.008;-499.0;-1328.0
17:14:46.012;-518.0;-1386.0
17:14:46.016;-577.0;-1378.0
17:14:46.020;-596.0;-1318.0
17:14:46.024;-572.0;-1242.0
17:14:46.028;-549.0;-1149.0
17:14:46.032;-372.0;-936.0
17:14:46.036;-540.0;-964.0
17:14:46.040;-490.0;-978.0
17:14:46.044;122.0;3962.0
17:14:46.048;-43.0;1581.0
17:14:46.052;-6.0;512.0
17:14:46.056;269.0;349.0
17:14:46.060;818.0;997.0
17:14:46.064;1237.0;1819.0
17:14:46.068;815.0;1313.0
17:14:46.072;84.0;56.0
17:14:49.773;-279.0;-595.0
17:14:49.777;-406.0;-898.0
17:14:49.781;-477.0;-1012.0
17:14:49.785;-314.0;-798.0
17:14:49.789;-243.0;-810.0
17:14:49.793;-397.0;-949.0
17:14:49.797;-27.0;-1069.0
17:14:49.801;-1078.0;-1411.0
17:14:49.805;-600.0;-716.0
17:14:49.809;-127.0;-154.0
17:14:49.813;359.0;523.0
17:14:49.817;1002.0;1550.0
17:14:49.821;1390.0;2363.0
17:14:49.825;808.0;1614.0
17:14:49.829;110.0;455.0
17:14:49.833;-227.0;-106.0
17:14:49.837;-259.0;-281.0
17:14:49.841;-325.0;-429.0
17:14:49.845;-332.0;-507.0
17:14:49.849;-337.0;-554.0
17:14:49.853;-341.0;-503.0
17:14:49.857;-389.0;-502.0
17:14:49.861;-15.0;-132.0
17:14:49.865;-164.0;-364.0
17:14:49.869;-345.0;-506.0
17:14:49.873;2660.0;5452.0
17:14:49.877;672.0;2296.0
17:14:49.881;132.0;652.0
17:14:49.885;77.0;130.0
17:14:49.889;464.0;445.0
17:14:49.893;1028.0;1349.0
17:14:49.897;939.0;1481.0
17:14:49.901;117.0;253.0
17:14:49.905;-345.0;-589.0
17:14:49.909;-536.0;-898.0
17:14:49.913;-611.0;-1085.0
17:14:49.917;-637.0;-1138.0
17:14:49.921;-646.0;-1181.0
17:14:49.925;-625.0;-1156.0
17:14:49.929;-613.0;-1102.0
17:14:49.933;-518.0;-919.0
17:14:49.937;-190.0;-526.0
17:14:49.941;-271.0;-710.0
17:14:49.945;-427.0;-874.0
17:14:49.949;2335.0;5151.0
17:14:49.953;493.0;1936.0
17:14:49.957;71.0;260.0
17:14:49.961;56.0;-134.0
17:14:49.965;478.0;201.0
17:14:49.969;1056.0;1163.0
17:14:49.973;913.0;1212.0
17:14:49.977;214.0;104.0
17:14:49.981;-265.0;-748.0
17:14:49.985;-402.0;-1052.0
17:14:49.989;-465.0;-1258.0
17:14:49.993;-521.0;-1361.0
17:14:49.997;-577.0;-1428.0
17:14:50.001;-607.0;-1511.0
17:14:50.005;-492.0;-1390.0
17:14:50.009;-364.0;-1147.0
17:14:50.013;-213.0;-1050.0
17:14:50.017;-428.0;-1194.0
17:14:50.021;-379.0;-1336.0
17:14:50.025;-5.0;2855.0
17:14:50.029;-79.0;913.0
17:14:50.033;26.0;124.0
17:14:50.037;280.0;133.0
17:14:50.041;847.0;957.0
17:14:50.045;1283.0;1743.0
17:14:50.049;883.0;1238.0
17:14:50.053;120.0;39.0
17:14:50.057;-264.0;-683.0
17:14:50.061;-336.0;-937.0
17:14:50.065;-335.0;-1077.0
17:14:50.069;-412.0;-1097.0
17:14:50.073;-443.0;-1047.0
17:14:50.077;-481.0;-1045.0
17:14:50.081;-411.0;-809.0
17:14:50.085;-221.0;-753.0
17:14:50.089;-446.0;-1033.0
17:14:50.093;-543.0;-1087.0
17:14:50.097;1047.0;5642.0
17:14:50.101;284.0;2146.0
17:14:50.105;105.0;521.0
17:14:50.109;217.0;164.0
17:14:50.113;694.0;674.0
17:14:50.117;1167.0;1566.0
17:14:50.121;840.0;1243.0
17:14:50.125;91.0;-99.0
17:14:50.129;-301.0;-855.0
17:14:50.133;-378.0;-1103.0
17:14:50.137;-437.0;-1155.0
17:14:50.141;-471.0;-1163.0
17:14:50.145;-484.0;-1164.0
17:14:50.149;-461.0;-1118.0
17:14:50.153;-435.0;-1076.0
17:14:50.157;-292.0;-769.0
17:14:50.161;-129.0;-689.0
17:14:50.165;-379.0;-910.0
17:14:50.169;-358.0;-1034.0
17:14:54.198;263.0;3919.0
17:14:54.202;593.0;2255.0
17:14:54.206;1080.0;2205.0
17:14:54.210;1125.0;2060.0
17:14:54.214;369.0;721.0
17:14:54.218;-178.0;-321.0
17:14:54.222;-403.0;-751.0
17:14:54.226;-446.0;-891.0
17:14:54.230;-491.0;-985.0
17:14:54.234;-527.0;-1029.0
17:14:54.238;-530.0;-986.0
17:14:54.242;-509.0;-919.0
17:14:54.246;-525.0;-875.0
17:14:54.250;-117.0;-511.0
17:14:54.254;-98.0;-561.0
17:14:54.258;-373.0;-764.0
17:14:54.262;416.0;337.0
17:14:54.266;-893.0;-1144.0
17:14:54.270;-501.0;-673.0
17:14:54.274;-127.0;-177.0
17:14:54.278;373.0;534.0
17:14:54.282;1044.0;1599.0
17:14:54.286;1289.0;2217.0
17:14:54.290;546.0;1284.0
17:14:54.294;-61.0;278.0
17:14:54.298;-280.0;-200.0
17:14:54.302;-340.0;-400.0
17:14:54.306;-387.0;-491.0
17:14:54.310;-429.0;-588.0
17:14:54.314;-481.0;-636.0
17:14:54.318;-437.0;-604.0
17:14:54.322;-451.0;-569.0
17:14:54.326;-248.0;-207.0
17:14:54.330;-134.0;-263.0
17:14:54.334;-303.0;-406.0
17:14:54.338;71.0;-523.0
17:14:54.342;-1100.0;-834.0
17:14:54.346;-518.0;-307.0
17:14:54.350;-60.0;166.0
17:14:54.354;425.0;784.0
17:14:54.358;1099.0;1838.0
17:14:54.362;1430.0;2652.0
17:14:54.366;810.0;1905.0
17:14:54.370;150.0;741.0
17:14:54.374;-174.0;10.0
17:14:54.378;-327.0;-246.0
17:14:54.382;-323.0;-394.0
17:14:54.386;-369.0;-525.0
17:14:54.390;-388.0;-540.0
17:14:54.394;-393.0;-529.0
17:14:54.398;-347.0;-507.0
17:14:54.402;13.0;-37.0
17:14:54.406;-146.0;-243.0
17:14:54.410;-345.0;-396.0
17:14:54.414;1768.0;4528.0
17:14:54.418;249.0;1851.0
17:14:54.422;-48.0;590.0
17:14:54.426;39.0;331.0
17:14:54.430;425.0;745.0
17:14:54.434;1048.0;1777.0
17:14:54.438;991.0;1955.0
17:14:54.442;279.0;782.0
17:14:54.446;-179.0;-123.0
17:14:54.450;-306.0;-513.0
17:14:54.454;-369.0;-718.0
17:14:54.458;-393.0;-792.0
17:14:54.462;-501.0;-891.0
17:14:54.466;-515.0;-943.0
17:14:54.470;-509.0;-955.0
17:14:54.474;-373.0;-635.0
17:14:54.478;-232.0;-694.0
17:14:54.482;-413.0;-952.0
17:14:54.486;-205.0;-1153.0
17:14:54.490;-696.0;-288.0
17:14:54.494;-416.0;-338.0
17:14:54.498;-108.0;-199.0
17:14:54.502;309.0;356.0
17:14:54.506;928.0;1275.0
17:14:54.510;1307.0;2141.0
17:14:54.514;839.0;1484.0
17:14:54.518;159.0;261.0
17:14:54.522;-199.0;-382.0
17:14:54.526;-280.0;-618.0
17:14:54.530;-292.0;-762.0
17:14:54.534;-366.0;-794.0
17:14:54.538;-394.0;-866.0
17:14:54.542;-423.0;-886.0
17:14:54.546;-460.0;-875.0
17:14:54.550;-105.0;-459.0
17:14:54.554;-129.0;-536.0
17:14:54.558;-395.0;-769.0
17:14:54.562;1412.0;2007.0
17:14:54.566;-116.0;351.0
17:14:54.570;-165.0;-40.0
17:14:54.574;-8.0;-32.0
17:14:54.578;404.0;535.0
17:14:54.582;1013.0;1555.0
17:14:54.586;1186.0;2019.0
17:14:54.590;436.0;972.0
17:14:54.594;-158.0;-4.0
17:14:58.396;-387.0;-375.0
17:14:58.400;-1154.0;-1101.0
17:14:58.404;-808.0;-888.0
17:14:58.408;-376.0;-515.0
17:14:58.412;158.0;99.0
17:14:58.416;803.0;1080.0
17:14:58.420;1197.0;1876.0
17:14:58.424;646.0;1086.0
17:14:58.428;-53.0;-76.0
17:14:58.432;-285.0;-550.0
17:14:58.436;-416.0;-877.0
17:14:58.440;-448.0;-1029.0
17:14:58.444;-382.0;-1051.0
17:14:58.448;-374.0;-1137.0
17:14:58.452;-358.0;-1079.0
17:14:58.456;-336.0;-1077.0
17:14:58.460;-147.0;-891.0
17:14:58.464;-277.0;-1052.0
17:14:58.468;-387.0;-1056.0
17:14:58.472;1748.0;6095.0
17:14:58.476;571.0;2287.0
17:14:58.480;238.0;448.0
17:14:58.484;231.0;-36.0
17:14:58.488;664.0;373.0
17:14:58.492;1117.0;1278.0
17:14:58.496;726.0;1012.0
17:14:58.500;24.0;-317.0
17:14:58.504;-355.0;-1016.0
17:14:58.508;-455.0;-1286.0
17:14:58.512;-472.0;-1392.0
17:14:58.516;-480.0;-1444.0
17:14:58.520;-547.0;-1386.0
17:14:58.524;-561.0;-1293.0
17:14:58.528;-284.0;-982.0
17:14:58.532;-278.0;-1081.0
17:14:58.536;-513.0;-1202.0
17:14:58.540;491.0;195.0
17:14:58.544;-704.0;-1320.0
17:14:58.548;-488.0;-839.0
17:14:58.552;-126.0;-224.0
17:14:58.556;325.0;488.0
17:14:58.560;946.0;1634.0
17:14:58.564;1117.0;2253.0
17:14:58.568;560.0;1200.0
17:14:58.572;17.0;-24.0
17:14:58.576;-287.0;-637.0
17:14:58.580;-373.0;-829.0
17:14:58.584;-322.0;-898.0
17:14:58.588;-356.0;-921.0
17:14:58.592;-387.0;-878.0
17:14:58.596;-238.0;-568.0
17:14:58.600;-144.0;-556.0
17:14:58.604;-349.0;-752.0
17:14:58.608;-12.0;-808.0
17:14:58.612;-1095.0;-1540.0
17:14:58.616;-581.0;-610.0
17:14:58.620;-190.0;-10.0
17:14:58.624;227.0;779.0
17:14:58.628;885.0;1897.0
17:14:58.632;1145.0;2633.0
17:14:58.636;756.0;1748.0
17:14:58.640;215.0;554.0
17:14:58.644;-26.0;62.0
17:14:58.648;-116.0;-199.0
17:14:58.652;-114.0;-342.0
17:14:58.656;-161.0;-411.0
17:14:58.660;-161.0;-419.0
17:14:58.664;-67.0;-274.0
17:14:58.668;119.0;-14.0
17:14:58.672;-95.0;-273.0
17:14:58.676;-256.0;-382.0
17:14:58.680;1950.0;7542.0
17:14:58.684;631.0;3246.0
17:14:58.688;227.0;1192.0
17:14:58.692;203.0;451.0
17:14:58.696;515.0;735.0
17:14:58.700;869.0;1515.0
17:14:58.704;691.0;1259.0
17:14:58.708;42.0;-14.0
17:14:58.712;-314.0;-730.0
17:14:58.716;-345.0;-937.0
17:14:58.720;-338.0;-1057.0
17:14:58.724;-425.0;-1105.0
17:14:58.728;-460.0;-1064.0
17:14:58.732;-490.0;-1076.0
17:14:58.736;-445.0;-922.0
17:14:58.740;-195.0;-594.0
17:14:58.744;-389.0;-801.0
17:14:58.748;-514.0;-939.0
17:14:58.752;2231.0;6296.0
17:14:58.756;574.0;2562.0
17:14:58.760;70.0;681.0
17:14:58.764;62.0;50.0
17:14:58.768;423.0;300.0
17:14:58.772;968.0;1082.0
17:14:58.776;751.0;991.0
17:14:58.780;47.0;-205.0
17:14:58.784;-332.0;-935.0
17:14:58.788;-441.0;-1175.0
17:14:58.792;-448.0;-1456.0
17:15:02.724;-485.0;-1389.0
17:15:02.728;-200.0;-1133.0
17:15:02.732;-240.0;-1167.0
17:15:02.736;-520.0;-1216.0
17:15:02.740;1403.0;1976.0
17:15:02.744;-112.0;226.0
17:15:02.748;-176.0;-313.0
17:15:02.752;-22.0;-321.0
17:15:02.756;385.0;195.0
17:15:02.760;1068.0;1217.0
17:15:02.764;1141.0;1566.0
17:15:02.768;337.0;379.0
17:15:02.772;-260.0;-550.0
17:15:02.776;-397.0;-922.0
17:15:02.780;-467.0;-1113.0
17:15:02.784;-297.0;-1053.0
17:15:02.788;-437.0;-1237.0
17:15:02.792;-511.0;-1250.0
17:15:02.796;-278.0;-872.0
17:15:02.800;-390.0;-1151.0
17:15:02.804;-553.0;-1134.0
17:15:02.808;1785.0;5271.0
17:15:02.812;446.0;2150.0
17:15:02.816;-15.0;536.0
17:15:02.820;132.0;146.0
17:15:02.824;559.0;614.0
17:15:02.828;995.0;1324.0
17:15:02.832;710.0;1140.0
17:15:02.836;47.0;-86.0
17:15:02.840;-357.0;-834.0
17:15:02.844;-492.0;-1056.0
17:15:02.848;-483.0;-1192.0
17:15:02.852;-430.0;-1208.0
17:15:02.856;-467.0;-1240.0
17:15:02.860;-255.0;-1008.0
17:15:02.864;-247.0;-1044.0
17:15:02.868;-415.0;-1191.0
17:15:02.872;550.0;1260.0
17:15:02.876;-516.0;-365.0
17:15:02.880;-372.0;-464.0
17:15:02.884;-166.0;-267.0
17:15:02.888;225.0;311.0
17:15:02.892;761.0;1385.0
17:15:02.896;813.0;1751.0
17:15:02.900;171.0;614.0
17:15:02.904;-271.0;-282.0
17:15:02.908;-411.0;-655.0
17:15:02.912;-448.0;-795.0
17:15:02.916;-420.0;-773.0
17:15:02.920;-465.0;-863.0
17:15:02.924;-484.0;-813.0
17:15:02.928;-238.0;-483.0
17:15:02.932;-420.0;-809.0
17:15:02.936;-527.0;-881.0
17:15:02.940;1812.0;6140.0
17:15:02.944;462.0;2583.0
17:15:02.948;-59.0;704.0
17:15:02.952;-84.0;102.0
17:15:02.956;276.0;485.0
17:15:02.960;632.0;1163.0
17:15:02.964;428.0;1038.0
17:15:02.968;-213.0;-157.0
17:15:02.972;-520.0;-780.0
17:15:02.976;-592.0;-970.0
17:15:02.980;-627.0;-1069.0
17:15:02.984;-622.0;-1087.0
17:15:02.988;-624.0;-1123.0
17:15:02.992;-628.0;-1043.0
17:15:02.996;-554.0;-869.0
17:15:03.000;-367.0;-705.0
17:15:03.004;-576.0;-839.0
17:15:03.008;-464.0;-985.0
17:15:03.012;-710.0;859.0
17:15:03.016;-506.0;244.0
17:15:03.020;-209.0;199.0
17:15:03.024;194.0;476.0
17:15:03.028;773.0;1304.0
17:15:03.032;1073.0;1837.0
17:15:03.036;649.0;1302.0
17:15:03.040;31.0;217.0
17:15:03.044;-241.0;-346.0
17:15:03.048;-295.0;-584.0
17:15:03.052;-368.0;-780.0
17:15:03.056;-434.0;-914.0
17:15:03.060;-510.0;-945.0
17:15:03.064;-505.0;-889.0
17:15:03.068;-508.0;-741.0
17:15:03.072;-233.0;-381.0
17:15:03.076;-460.0;-702.0
17:15:03.080;-575.0;-767.0
17:15:03.084;1377.0;6311.0
17:15:03.088;332.0;2540.0
17:15:03.092;52.0;675.0
17:15:03.096;174.0;254.0
17:15:03.100;590.0;531.0
17:15:03.104;999.0;1133.0
17:15:03.108;756.0;983.0
17:15:03.112;40.0;-132.0
17:15:03.116;-285.0;-648.0
17:15:03.120;-409.0;-974.0
17:15:06.955;-488.0;-1160.0
17:15:06.959;-556.0;-1390.0
17:15:06.963;-538.0;-1487.0
17:15:06.967;-357.0;-1304.0
17:15:06.971;-478.0;-1356.0
17:15:06.975;-303.0;-1561.0
17:15:06.979;-1162.0;-875.0
17:15:06.983;-612.0;-758.0
17:15:06.987;-188.0;-516.0
17:15:06.991;267.0;50.0
17:15:06.995;824.0;1000.0
17:15:06.999;1097.0;1663.0
17:15:07.003;649.0;1060.0
17:15:07.007;66.0;29.0
17:15:07.011;-203.0;-433.0
17:15:07.015;-264.0;-608.0
17:15:07.019;-320.0;-758.0
17:15:07.023;-375.0;-899.0
17:15:07.027;-420.0;-853.0
17:15:07.031;-216.0;-639.0
17:15:07.035;-112.0;-520.0
17:15:07.039;-269.0;-632.0
17:15:07.043;572.0;515.0
17:15:07.047;-462.0;-599.0
17:15:07.051;-250.0;-218.0
17:15:07.055;42.0;242.0
17:15:07.059;378.0;947.0
17:15:07.063;865.0;1901.0
17:15:07.067;921.0;2239.0
17:15:07.071;298.0;1174.0
17:15:07.075;-124.0;203.0
17:15:07.079;-303.0;-207.0
17:15:07.083;-371.0;-404.0
17:15:07.087;-391.0;-576.0
17:15:07.091;-480.0;-741.0
17:15:07.095;-493.0;-748.0
17:15:07.099;-261.0;-602.0
17:15:07.103;-224.0;-688.0
17:15:07.107;-423.0;-806.0
17:15:07.111;656.0;938.0
17:15:07.115;-528.0;-503.0
17:15:07.119;-391.0;-467.0
17:15:07.123;-211.0;-288.0
17:15:07.127;224.0;378.0
17:15:07.131;720.0;1263.0
17:15:07.135;736.0;1546.0
17:15:07.139;210.0;626.0
17:15:07.143;-198.0;-279.0
17:15:07.147;-379.0;-655.0
17:15:07.151;-455.0;-832.0
17:15:07.155;-458.0;-941.0
17:15:07.159;-489.0;-876.0
17:15:07.163;-464.0;-945.0
17:15:07.167;-439.0;-939.0
17:15:07.171;-199.0;-697.0
17:15:07.175;-388.0;-797.0
17:15:07.179;-356.0;-895.0
17:15:07.183;-99.0;4178.0
17:15:07.187;-176.0;1693.0
17:15:07.191;-84.0;554.0
17:15:07.195;181.0;387.0
17:15:07.199;651.0;856.0
17:15:07.203;963.0;1387.0
17:15:07.207;614.0;972.0
17:15:07.211;63.0;22.0
17:15:07.215;-197.0;-392.0
17:15:07.219;-285.0;-612.0
17:15:07.223;-297.0;-689.0
17:15:07.227;-289.0;-657.0
17:15:07.231;-290.0;-629.0
17:15:07.235;-349.0;-684.0
17:15:07.239;-143.0;-338.0
17:15:07.243;-133.0;-527.0
17:15:07.247;-298.0;-639.0
17:15:07.251;1844.0;3415.0
17:15:07.255;344.0;1309.0
17:15:07.259;31.0;291.0
17:15:07.263;127.0;193.0
17:15:07.267;444.0;495.0
17:15:07.271;987.0;1285.0
17:15:07.275;952.0;1364.0
17:15:07.279;269.0;389.0
17:15:07.283;-154.0;-238.0
17:15:07.287;-333.0;-555.0
17:15:07.291;-403.0;-702.0
17:15:07.295;-434.0;-718.0
17:15:07.299;-464.0;-731.0
17:15:07.303;-458.0;-710.0
17:15:07.307;-195.0;-435.0
17:15:07.311;-77.0;-414.0
17:15:07.315;-348.0;-593.0
17:15:07.319;863.0;494.0
17:15:07.323;-691.0;-850.0
17:15:07.327;-420.0;-409.0
17:15:07.331;-47.0;60.0
17:15:07.335;419.0;584.0
17:15:07.339;1039.0;1467.0
17:15:07.343;1082.0;1750.0
17:15:07.347;444.0;915.0
17:15:07.351;-120.0;4.0
17:15:11.107;-271.0;-349.0
17:15:11.111;-203.0;-618.0
17:15:11.115;-445.0;-985.0
17:15:11.119;-326.0;-1317.0
17:15:11.123;-1041.0;-275.0
17:15:11.127;-598.0;-413.0
17:15:11.131;-219.0;-342.0
17:15:11.135;303.0;181.0
17:15:11.139;873.0;922.0
17:15:11.143;1192.0;1549.0
17:15:11.147;696.0;920.0
17:15:11.151;24.0;-163.0
17:15:11.155;-199.0;-635.0
17:15:11.159;-240.0;-812.0
17:15:11.163;-307.0;-960.0
17:15:11.167;-348.0;-1003.0
17:15:11.171;-333.0;-857.0
17:15:11.175;-26.0;-464.0
17:15:11.179;-205.0;-748.0
17:15:11.183;-359.0;-853.0
17:15:11.187;2088.0;5954.0
17:15:11.191;579.0;2285.0
17:15:11.195;49.0;491.0
17:15:11.199;39.0;-50.0
17:15:11.203;339.0;270.0
17:15:11.207;714.0;906.0
17:15:11.211;433.0;581.0
17:15:11.215;-123.0;-429.0
17:15:11.219;-423.0;-970.0
17:15:11.223;-516.0;-1204.0
17:15:11.227;-482.0;-1285.0
17:15:11.231;-495.0;-1314.0
17:15:11.235;-542.0;-1335.0
17:15:11.239;-340.0;-1032.0
17:15:11.243;-276.0;-1065.0
17:15:11.247;-500.0;-1177.0
17:15:11.251;318.0;-347.0
17:15:11.255;-889.0;-1590.0
17:15:11.259;-561.0;-880.0
17:15:11.263;-233.0;-348.0
17:15:11.267;206.0;407.0
17:15:11.271;817.0;1412.0
17:15:11.275;937.0;1890.0
17:15:11.279;281.0;891.0
17:15:11.283;-232.0;-57.0
17:15:11.287;-398.0;-411.0
17:15:11.291;-449.0;-536.0
17:15:11.295;-461.0;-613.0
17:15:11.299;-554.0;-742.0
17:15:11.303;-587.0;-770.0
17:15:11.307;-511.0;-639.0
17:15:11.311;-366.0;-623.0
17:15:11.315;-509.0;-768.0
17:15:11.319;-223.0;-1100.0
17:15:11.323;-1021.0;-458.0
17:15:11.327;-528.0;-209.0
17:15:11.331;-154.0;27.0
17:15:11.335;291.0;527.0
17:15:11.339;857.0;1272.0
17:15:11.343;1154.0;1857.0
17:15:11.347;645.0;1186.0
17:15:11.351;30.0;167.0
17:15:11.355;-245.0;-257.0
17:15:11.359;-302.0;-433.0
17:15:11.363;-364.0;-598.0
17:15:11.367;-318.0;-621.0
17:15:11.371;-355.0;-613.0
17:15:11.375;-354.0;-572.0
17:15:11.379;-252.0;-347.0
17:15:11.383;-139.0;-344.0
17:15:11.387;-326.0;-487.0
17:15:11.391;56.0;-711.0
17:15:11.395;-1218.0;-1332.0
17:15:11.399;-637.0;-527.0
17:15:11.403;-127.0;70.0
17:15:11.407;386.0;695.0
17:15:11.411;1053.0;1579.0
17:15:11.415;1306.0;2110.0
17:15:11.419;696.0;1363.0
17:15:11.423;115.0;361.0
17:15:11.427;-124.0;-116.0
17:15:11.431;-202.0;-309.0
17:15:11.435;-317.0;-414.0
17:15:11.439;-403.0;-478.0
17:15:11.443;-405.0;-600.0
17:15:11.447;-446.0;-464.0
17:15:11.451;-256.0;-153.0
17:15:11.455;-168.0;-312.0
17:15:11.459;-359.0;-438.0
17:15:11.463;423.0;-28.0
17:15:11.467;-1012.0;-1446.0
17:15:11.471;-603.0;-533.0
17:15:11.475;-27.0;287.0
17:15:11.479;481.0;879.0
17:15:11.483;1184.0;1839.0
17:15:11.487;1425.0;2347.0
17:15:11.491;710.0;1481.0
17:15:11.495;19.0;636.0
17:15:11.499;-223.0;95.0
17:15:11.503;-281.0;-200.0
17:15:15.170;-325.0;-254.0
17:15:15.174;-394.0;-218.0
17:15:15.178;-133.0;88.0
17:15:15.182;-391.0;-284.0
17:15:15.186;-518.0;-294.0
17:15:15.190;2636.0;6133.0
17:15:15.194;814.0;2610.0
17:15:15.198;184.0;861.0
17:15:15.202;188.0;380.0
17:15:15.206;592.0;690.0
17:15:15.210;1072.0;1247.0
17:15:15.214;764.0;971.0
17:15:15.218;-38.0;-130.0
17:15:15.222;-418.0;-716.0
17:15:15.226;-546.0;-934.0
17:15:15.230;-565.0;-1026.0
17:15:15.234;-696.0;-1132.0
17:15:15.238;-699.0;-1102.0
17:15:15.242;-648.0;-1058.0
17:15:15.246;-555.0;-996.0
17:15:15.250;-431.0;-978.0
17:15:15.254;-556.0;-1016.0
17:15:15.258;-558.0;-1167.0
17:15:15.262;103.0;3171.0
17:15:15.266;-125.0;1049.0
17:15:15.270;2.0;209.0
17:15:15.274;317.0;143.0
17:15:15.278;833.0;686.0
17:15:15.282;1144.0;1251.0
17:15:15.286;743.0;810.0
17:15:15.290;24.0;-339.0
17:15:15.294;-234.0;-806.0
17:15:15.298;-379.0;-1004.0
17:15:15.302;-449.0;-1129.0
17:15:15.306;-516.0;-1144.0
17:15:15.310;-459.0;-1117.0
17:15:15.314;-465.0;-975.0
17:15:15.318;-161.0;-588.0
17:15:15.322;-344.0;-898.0
17:15:15.326;-502.0;-1029.0
17:15:15.330;2141.0;5157.0
17:15:15.334;595.0;2063.0
17:15:15.338;97.0;546.0
17:15:15.342;73.0;92.0
17:15:15.346;482.0;506.0
17:15:15.350;929.0;1237.0
17:15:15.354;695.0;1085.0
17:15:15.358;-59.0;-40.0
17:15:15.362;-432.0;-682.0
17:15:15.366;-537.0;-905.0
17:15:15.370;-446.0;-949.0
17:15:15.374;-532.0;-1043.0
17:15:15.378;-519.0;-1057.0
17:15:15.382;-384.0;-745.0
17:15:15.386;-309.0;-802.0
17:15:15.390;-535.0;-985.0
17:15:15.394;-126.0;-1071.0
17:15:15.398;-1511.0;-1858.0
17:15:15.402;-823.0;-1003.0
17:15:15.406;-250.0;-329.0
17:15:15.410;318.0;442.0
17:15:15.414;1001.0;1545.0
17:15:15.418;1284.0;2161.0
17:15:15.422;638.0;1272.0
17:15:15.426;-2.0;236.0
17:15:15.430;-216.0;-233.0
17:15:15.434;-276.0;-379.0
17:15:15.438;-363.0;-470.0
17:15:15.442;-381.0;-459.0
17:15:15.446;-88.0;-158.0
17:15:15.450;-245.0;-447.0
17:15:15.454;-453.0;-720.0
17:15:15.458;1830.0;4083.0
17:15:15.462;275.0;1448.0
17:15:15.466;-73.0;144.0
17:15:15.470;35.0;-49.0
17:15:15.474;420.0;475.0
17:15:15.478;917.0;1310.0
17:15:15.482;731.0;1243.0
17:15:15.486;81.0;35.0
17:15:15.490;-303.0;-844.0
17:15:15.494;-420.0;-1174.0
17:15:15.498;-454.0;-1280.0
17:15:15.502;-518.0;-1352.0
17:15:15.506;-399.0;-1052.0
17:15:15.510;-305.0;-1032.0
17:15:15.514;-469.0;-1076.0
17:15:15.518;-433.0;-1260.0
17:15:15.522;-186.0;3144.0
17:15:15.526;-187.0;1045.0
17:15:15.530;-62.0;173.0
17:15:15.534;233.0;230.0
17:15:15.538;764.0;973.0
17:15:15.542;1041.0;1577.0
17:15:15.546;509.0;852.0
17:15:15.550;-45.0;-199.0
17:15:15.554;-320.0;-675.0
17:15:15.558;-352.0;-845.0
17:15:15.562;-330.0;-911.0
17:15:15.566;-362.0;-928.0
17:15:19.481;-317.0;-920.0
17:15:19.485;1284.0;2842.0
17:15:19.489;14.0;765.0
17:15:19.493;-224.0;-109.0
17:15:19.497;-95.0;-254.0
17:15:19.501;293.0;278.0
17:15:19.505;696.0;1144.0
17:15:19.509;640.0;1209.0
17:15:19.513;15.0;21.0
17:15:19.517;-324.0;-706.0
17:15:19.521;-367.0;-999.0
17:15:19.525;-452.0;-1094.0
17:15:19.529;-418.0;-1151.0
17:15:19.533;-501.0;-1149.0
17:15:19.537;-513.0;-1132.0
17:15:19.541;-288.0;-924.0
17:15:19.545;-229.0;-967.0
17:15:19.549;-429.0;-1060.0
17:15:19.553;489.0;250.0
17:15:19.557;-691.0;-880.0
17:15:19.561;-504.0;-592.0
17:15:19.565;-209.0;-244.0
17:15:19.569;192.0;433.0
17:15:19.573;757.0;1384.0
17:15:19.577;897.0;1742.0
17:15:19.581;333.0;743.0
17:15:19.585;-116.0;-85.0
17:15:19.589;-306.0;-428.0
17:15:19.593;-422.0;-665.0
17:15:19.597;-450.0;-786.0
17:15:19.601;-499.0;-773.0
17:15:19.605;-533.0;-859.0
17:15:19.609;-486.0;-926.0
17:15:19.613;-451.0;-863.0
17:15:19.617;-219.0;-604.0
17:15:19.621;-411.0;-868.0
17:15:19.625;-554.0;-918.0
17:15:19.629;1995.0;6037.0
17:15:19.633;589.0;2378.0
17:15:19.637;157.0;627.0
17:15:19.641;162.0;57.0
17:15:19.645;581.0;436.0
17:15:19.649;1043.0;970.0
17:15:19.653;727.0;787.0
17:15:19.657;-17.0;-283.0
17:15:19.661;-325.0;-862.0
17:15:19.665;-411.0;-1092.0
17:15:19.669;-418.0;-1198.0
17:15:19.673;-479.0;-1325.0
17:15:19.677;-488.0;-1323.0
17:15:19.681;-455.0;-1261.0
17:15:19.685;-440.0;-1256.0
17:15:19.689;-95.0;-1090.0
17:15:19.693;-162.0;-1077.0
17:15:19.697;-457.0;-1208.0
17:15:19.701;1176.0;2409.0
17:15:19.705;-136.0;327.0
17:15:19.709;-198.0;-306.0
17:15:19.713;22.0;-218.0
17:15:19.717;431.0;277.0
17:15:19.721;909.0;1170.0
17:15:19.725;908.0;1325.0
17:15:19.729;280.0;325.0
17:15:19.733;-140.0;-357.0
17:15:19.737;-271.0;-643.0
17:15:19.741;-352.0;-867.0
17:15:19.745;-352.0;-934.0
17:15:19.749;-360.0;-935.0
17:15:19.753;-442.0;-961.0
17:15:19.757;-109.0;-666.0
17:15:19.761;-155.0;-686.0
17:15:19.765;-401.0;-826.0
17:15:19.769;1204.0;2890.0
17:15:19.773;2.0;964.0
17:15:19.777;-91.0;219.0
17:15:19.781;79.0;182.0
17:15:19.785;360.0;585.0
17:15:19.789;798.0;1475.0
17:15:19.793;714.0;1553.0
17:15:19.797;156.0;411.0
17:15:19.801;-177.0;-294.0
17:15:19.805;-277.0;-587.0
17:15:19.809;-316.0;-811.0
17:15:19.813;-326.0;-874.0
17:15:19.817;-364.0;-881.0
17:15:19.821;-405.0;-870.0
17:15:19.825;-335.0;-608.0
17:15:19.829;-186.0;-568.0
17:15:19.833;-340.0;-732.0
17:15:19.837;26.0;-934.0
17:15:19.841;-857.0;-954.0
17:15:19.845;-462.0;-365.0
17:15:19.849;-63.0;109.0
17:15:19.853;370.0;715.0
17:15:19.857;862.0;1577.0
17:15:19.861;1095.0;2051.0
17:15:19.865;591.0;1251.0
17:15:19.869;26.0;229.0
17:15:19.873;-160.0;-186.0
17:15:19.877;-158.0;-382.0
17:15:23.569;-217.0;-560.0
17:15:23.573;-81.0;-443.0
17:15:23.577;33.0;-606.0
17:15:23.581;-193.0;-845.0
17:15:23.585;413.0;-826.0
17:15:23.589;-919.0;-1969.0
17:15:23.593;-472.0;-1093.0
17:15:23.597;-108.0;-477.0
17:15:23.601;357.0;332.0
17:15:23.605;855.0;1184.0
17:15:23.609;1005.0;1646.0
17:15:23.613;438.0;912.0
17:15:23.617;-55.0;41.0
17:15:23.621;-226.0;-252.0
17:15:23.625;-272.0;-414.0
17:15:23.629;-352.0;-552.0
17:15:23.633;-405.0;-582.0
17:15:23.637;-462.0;-643.0
17:15:23.641;-476.0;-604.0
17:15:23.645;-106.0;-354.0
17:15:23.649;-113.0;-341.0
17:15:23.653;-366.0;-413.0
17:15:23.657;1614.0;2961.0
17:15:23.661;118.0;1197.0
17:15:23.665;-121.0;377.0
17:15:23.669;55.0;305.0
17:15:23.673;444.0;676.0
17:15:23.677;998.0;1348.0
17:15:23.681;952.0;1542.0
17:15:23.685;165.0;530.0
17:15:23.689;-282.0;-137.0
17:15:23.693;-425.0;-514.0
17:15:23.697;-528.0;-673.0
17:15:23.701;-551.0;-777.0
17:15:23.705;-551.0;-831.0
17:15:23.709;-525.0;-833.0
17:15:23.713;-452.0;-725.0
17:15:23.717;-222.0;-646.0
17:15:23.721;-363.0;-819.0
17:15:23.725;-296.0;-1089.0
17:15:23.729;-858.0;568.0
17:15:23.733;-445.0;-28.0
17:15:23.737;-136.0;-214.0
17:15:23.741;333.0;181.0
17:15:23.745;967.0;924.0
17:15:23.749;1189.0;1398.0
17:15:23.753;716.0;828.0
17:15:23.757;91.0;-218.0
17:15:23.761;-116.0;-681.0
17:15:23.765;-223.0;-928.0
17:15:23.769;-262.0;-1081.0
17:15:23.773;-339.0;-1117.0
17:15:23.777;-417.0;-1084.0
17:15:23.781;-64.0;-670.0
17:15:23.785;-165.0;-793.0
17:15:23.789;-400.0;-931.0
17:15:23.793;1864.0;4498.0
17:15:23.797;351.0;1781.0
17:15:23.801;6.0;403.0
17:15:23.805;65.0;78.0
17:15:23.809;405.0;446.0
17:15:23.813;873.0;1179.0
17:15:23.817;713.0;1132.0
17:15:23.821;93.0;59.0
17:15:23.825;-290.0;-580.0
17:15:23.829;-395.0;-844.0
17:15:23.833;-443.0;-966.0
17:15:23.837;-473.0;-993.0
17:15:23.841;-493.0;-949.0
17:15:23.845;-67.0;-631.0
17:15:23.849;-163.0;-663.0
17:15:23.853;-418.0;-779.0
17:15:23.857;1196.0;2775.0
17:15:23.861;-14.0;967.0
17:15:23.865;-180.0;215.0
17:15:23.869;-6.0;162.0
17:15:23.873;341.0;680.0
17:15:23.877;796.0;1642.0
17:15:23.881;786.0;1745.0
17:15:23.885;133.0;623.0
17:15:23.889;-279.0;-116.0
17:15:23.893;-422.0;-374.0
17:15:23.897;-506.0;-495.0
17:15:23.901;-532.0;-551.0
17:15:23.905;-551.0;-553.0
17:15:23.909;-542.0;-548.0
17:15:23.913;-336.0;-372.0
17:15:23.917;-473.0;-530.0
17:15:23.921;-560.0;-664.0
17:15:23.925;631.0;4836.0
17:15:23.929;82.0;1986.0
17:15:23.933;-8.0;677.0
17:15:23.937;276.0;478.0
17:15:23.941;794.0;987.0
17:15:23.945;1126.0;1526.0
17:15:23.949;614.0;915.0
17:15:23.953;-48.0;-198.0
17:15:23.957;-319.0;-637.0
17:15:23.961;-363.0;-794.0
17:15:23.965;-366.0;-865.0
17:15:27.833;-407.0;-886.0
17:15:27.837;-165.0;-795.0
17:15:27.841;-288.0;-925.0
17:15:27.845;-492.0;-1033.0
17:15:27.849;1469.0;2146.0
17:15:27.853;-69.0;390.0
17:15:27.857;-227.0;-295.0
17:15:27.861;-74.0;-283.0
17:15:27.865;362.0;248.0
17:15:27.869;981.0;1170.0
17:15:27.873;973.0;1298.0
17:15:27.877;240.0;183.0
17:15:27.881;-180.0;-572.0
17:15:27.885;-368.0;-878.0
17:15:27.889;-383.0;-999.0
17:15:27.893;-412.0;-1070.0
17:15:27.897;-471.0;-1092.0
17:15:27.901;-496.0;-1119.0
17:15:27.905;-478.0;-1048.0
17:15:27.909;-335.0;-919.0
17:15:27.913;-435.0;-1086.0
17:15:27.917;-503.0;-1076.0
17:15:27.921;1004.0;5610.0
17:15:27.925;239.0;2097.0
17:15:27.929;28.0;469.0
17:15:27.933;186.0;34.0
17:15:27.937;560.0;599.0
17:15:27.941;968.0;1230.0
17:15:27.945;564.0;746.0
17:15:27.949;-42.0;-399.0
17:15:27.953;-345.0;-963.0
17:15:27.957;-435.0;-1130.0
17:15:27.961;-448.0;-1210.0
17:15:27.965;-528.0;-1269.0
17:15:27.969;-500.0;-1223.0
17:15:27.973;-482.0;-1125.0
17:15:27.977;-174.0;-799.0
17:15:27.981;-154.0;-786.0
17:15:27.985;-367.0;-888.0
17:15:27.989;840.0;1418.0
17:15:27.993;-422.0;-171.0
17:15:27.997;-312.0;-232.0
17:15:28.001;-111.0;-29.0
17:15:28.005;280.0;618.0
17:15:28.009;816.0;1645.0
17:15:28.013;757.0;1933.0
17:15:28.017;182.0;759.0
17:15:28.021;-211.0;-122.0
17:15:28.025;-374.0;-489.0
17:15:28.029;-371.0;-602.0
17:15:28.033;-441.0;-758.0
17:15:28.037;-501.0;-853.0
17:15:28.041;-432.0;-808.0
17:15:28.045;-418.0;-807.0
17:15:28.049;-325.0;-706.0
17:15:28.053;-174.0;-617.0
17:15:28.057;-274.0;-661.0
17:15:28.061;-127.0;-813.0
17:15:28.065;-107.0;2050.0
17:15:28.069;-81.0;836.0
17:15:28.073;-11.0;395.0
17:15:28.077;332.0;533.0
17:15:28.081;880.0;1290.0
17:15:28.085;1198.0;1935.0
17:15:28.089;745.0;1258.0
17:15:28.093;194.0;121.0
17:15:28.097;-77.0;-399.0
17:15:28.101;-130.0;-588.0
17:15:28.105;-159.0;-627.0
17:15:28.109;-174.0;-719.0
17:15:28.113;-263.0;-771.0
17:15:28.117;-325.0;-784.0
17:15:28.121;-337.0;-769.0
17:15:28.125;-323.0;-696.0
17:15:28.129;-10.0;-498.0
17:15:28.133;-93.0;-572.0
17:15:28.137;-321.0;-692.0
17:15:28.141;1988.0;4202.0
17:15:28.145;392.0;1645.0
17:15:28.149;-2.0;282.0
17:15:28.153;87.0;-9.0
17:15:28.157;499.0;357.0
17:15:28.161;988.0;1158.0
17:15:28.165;924.0;1243.0
17:15:28.169;117.0;100.0
17:15:28.173;-288.0;-629.0
17:15:28.177;-421.0;-898.0
17:15:28.181;-459.0;-1037.0
17:15:28.185;-525.0;-1120.0
17:15:28.189;-583.0;-1160.0
17:15:28.193;-612.0;-1155.0
17:15:28.197;-582.0;-1078.0
17:15:28.201;-600.0;-1051.0
17:15:28.205;-514.0;-958.0
17:15:28.209;-270.0;-715.0
17:15:28.213;-410.0;-796.0
17:15:28.217;-452.0;-846.0
17:15:28.221;654.0;4769.0
17:15:28.225;83.0;1851.0
17:15:28.229;62.0;558.0
17:15:31.939;256.0;283.0
17:15:31.943;560.0;784.0
17:15:31.947;94.0;2.0
17:15:31.951;-260.0;-549.0
17:15:31.955;-294.0;-739.0
17:15:31.959;-328.0;-837.0
17:15:31.963;-332.0;-870.0
17:15:31.967;-391.0;-893.0
17:15:31.971;-379.0;-848.0
17:15:31.975;-357.0;-798.0
17:15:31.979;-392.0;-775.0
17:15:31.983;-128.0;-481.0
17:15:31.987;-95.0;-529.0
17:15:31.991;-254.0;-701.0
17:15:31.995;354.0;-597.0
17:15:31.999;-1191.0;-1876.0
17:15:32.003;-542.0;-965.0
17:15:32.007;29.0;-173.0
17:15:32.011;547.0;593.0
17:15:32.015;1283.0;1727.0
17:15:32.019;1454.0;2274.0
17:15:32.023;717.0;1214.0
17:15:32.027;74.0;99.0
17:15:32.031;-95.0;-271.0
17:15:32.035;-246.0;-499.0
17:15:32.039;-253.0;-638.0
17:15:32.043;-322.0;-727.0
17:15:32.047;-384.0;-801.0
17:15:32.051;-358.0;-808.0
17:15:32.055;-309.0;-810.0
17:15:32.059;-175.0;-602.0
17:15:32.063;-384.0;-742.0
17:15:32.067;-424.0;-702.0
17:15:32.071;641.0;5645.0
17:15:32.075;101.0;2281.0
17:15:32.079;81.0;844.0
17:15:32.083;249.0;497.0
17:15:32.087;758.0;1003.0
17:15:32.091;1219.0;1822.0
17:15:32.095;813.0;1407.0
17:15:32.099;78.0;202.0
17:15:32.103;-322.0;-483.0
17:15:32.107;-362.0;-615.0
17:15:32.111;-413.0;-719.0
17:15:32.115;-449.0;-750.0
17:15:32.119;-483.0;-759.0
17:15:32.123;-441.0;-723.0
17:15:32.127;-443.0;-717.0
17:15:32.131;-312.0;-487.0
17:15:32.135;-473.0;-677.0
17:15:32.139;-529.0;-718.0
17:15:32.143;992.0;5959.0
17:15:32.147;170.0;2371.0
17:15:32.151;11.0;753.0
17:15:32.155;174.0;336.0
17:15:32.159;599.0;773.0
17:15:32.163;1047.0;1494.0
17:15:32.167;682.0;1064.0
17:15:32.171;4.0;-127.0
17:15:32.175;-363.0;-760.0
17:15:32.179;-480.0;-947.0
17:15:32.183;-517.0;-1006.0
17:15:32.187;-509.0;-975.0
17:15:32.191;-580.0;-992.0
17:15:32.195;-565.0;-959.0
17:15:32.199;-589.0;-946.0
17:15:32.203;-225.0;-728.0
17:15:32.207;-180.0;-698.0
17:15:32.211;-406.0;-774.0
17:15:32.215;1320.0;1836.0
17:15:32.219;-203.0;215.0
17:15:32.223;-209.0;-126.0
17:15:32.227;-24.0;-45.0
17:15:32.231;462.0;542.0
17:15:32.235;1080.0;1532.0
17:15:32.239;1094.0;1780.0
17:15:32.243;262.0;540.0
17:15:32.247;-240.0;-398.0
17:15:32.251;-390.0;-751.0
17:15:32.255;-437.0;-900.0
17:15:32.259;-446.0;-961.0
17:15:32.263;-501.0;-1075.0
17:15:32.267;-552.0;-1147.0
17:15:32.271;-477.0;-1061.0
17:15:32.275;-452.0;-963.0
17:15:32.279;-141.0;-631.0
17:15:32.283;-299.0;-779.0
17:15:32.287;-457.0;-905.0
17:15:32.291;2367.0;5032.0
17:15:32.295;615.0;1919.0
17:15:32.299;125.0;313.0
17:15:32.303;135.0;-96.0
17:15:32.307;531.0;303.0
17:15:32.311;1061.0;1215.0
17:15:32.315;903.0;1142.0
17:15:32.319;127.0;-177.0
17:15:32.323;-330.0;-996.0
17:15:32.327;-519.0;-1389.0
17:15:32.331;-583.0;-1367.0
17:15:32.335;-602.0;-1473.0
17:15:37.611;-631.0;-1502.0
17:15:37.615;-305.0;-1307.0
17:15:37.619;-249.0;-1352.0
17:15:37.623;-466.0;-1465.0
17:15:37.627;615.0;-58.0
17:15:37.631;-701.0;-1469.0
17:15:37.635;-443.0;-1016.0
17:15:37.639;-142.0;-502.0
17:15:37.643;371.0;265.0
17:15:37.647;1006.0;1469.0
17:15:37.651;1117.0;1983.0
17:15:37.655;403.0;907.0
17:15:37.659;-129.0;-74.0
17:15:37.663;-356.0;-498.0
17:15:37.667;-422.0;-604.0
17:15:37.671;-454.0;-679.0
17:15:37.675;-508.0;-709.0
17:15:37.679;-564.0;-668.0
17:15:37.683;-510.0;-603.0
17:15:37.687;-474.0;-528.0
17:15:37.691;-357.0;-397.0
17:15:37.695;-210.0;-350.0
17:15:37.699;-393.0;-460.0
17:15:37.703;-264.0;-599.0
17:15:37.707;-166.0;1725.0
17:15:37.711;-136.0;787.0
17:15:37.715;44.0;483.0
17:15:37.719;435.0;732.0
17:15:37.723;1023.0;1604.0
17:15:37.727;1404.0;2404.0
17:15:37.731;765.0;1613.0
17:15:37.735;55.0;377.0
17:15:37.739;-300.0;-236.0
17:15:37.743;-425.0;-516.0
17:15:37.747;-376.0;-570.0
17:15:37.751;-436.0;-602.0
17:15:37.755;-448.0;-602.0
17:15:37.759;-418.0;-574.0
17:15:37.763;-425.0;-540.0
17:15:37.767;-439.0;-517.0
17:15:37.771;-307.0;-286.0
17:15:37.775;-137.0;-227.0
17:15:37.779;-335.0;-402.0
17:15:37.783;-20.0;-546.0
17:15:37.787;-939.0;-435.0
17:15:37.791;-481.0;-108.0
17:15:37.795;-68.0;231.0
17:15:37.799;442.0;830.0
17:15:37.803;1172.0;1955.0
17:15:37.807;1505.0;2634.0
17:15:37.811;841.0;1677.0
17:15:37.815;152.0;449.0
17:15:37.819;-86.0;-83.0
17:15:37.823;-235.0;-403.0
17:15:37.827;-390.0;-622.0
17:15:37.831;-408.0;-699.0
17:15:37.835;-429.0;-734.0
17:15:37.839;-416.0;-693.0
17:15:37.843;-420.0;-685.0
17:15:37.847;-402.0;-642.0
17:15:37.851;-117.0;-443.0
17:15:37.855;-87.0;-423.0
17:15:37.859;-375.0;-589.0
17:15:37.863;1333.0;2094.0
17:15:37.867;-132.0;372.0
17:15:37.871;-121.0;86.0
17:15:37.875;74.0;233.0
17:15:37.879;524.0;829.0
17:15:37.883;1187.0;1912.0
17:15:37.887;1281.0;2301.0
17:15:37.891;474.0;1029.0
17:15:37.895;-119.0;-41.0
17:15:37.899;-352.0;-478.0
17:15:37.903;-371.0;-595.0
17:15:37.907;-418.0;-654.0
17:15:37.911;-447.0;-659.0
17:15:37.915;-433.0;-654.0
17:15:37.919;-389.0;-633.0
17:15:37.923;-348.0;-601.0
17:15:37.927;-174.0;-315.0
17:15:37.931;-51.0;-266.0
17:15:37.935;-120.0;-416.0
17:15:37.939;-112.0;-648.0
17:15:37.943;-149.0;1964.0
17:15:37.947;-68.0;970.0
17:15:37.951;66.0;607.0
17:15:37.955;441.0;891.0
17:15:37.959;1067.0;1808.0
17:15:37.963;1423.0;2624.0
17:15:37.967;851.0;1813.0
17:15:37.971;149.0;613.0
17:15:37.975;-190.0;-103.0
17:15:37.979;-269.0;-324.0
17:15:37.983;-329.0;-438.0
17:15:37.987;-460.0;-627.0
17:15:37.991;-510.0;-711.0
17:15:37.995;-519.0;-736.0
17:15:37.999;-525.0;-700.0
17:15:38.003;-484.0;-646.0
17:15:38.007;-225.0;-410.0
17:15:41.825;-184.0;-463.0
17:15:41.829;-536.0;-1422.0
17:15:41.833;521.0;4063.0
17:15:41.837;-75.0;793.0
17:15:41.841;-223.0;-623.0
17:15:41.845;29.0;-784.0
17:15:41.849;573.0;-114.0
17:15:41.853;1058.0;780.0
17:15:41.857;668.0;343.0
17:15:41.861;-102.0;-881.0
17:15:41.865;-528.0;-1482.0
17:15:41.869;-521.0;-1542.0
17:15:41.873;-512.0;-1512.0
17:15:41.877;-549.0;-1509.0
17:15:41.881;-559.0;-1430.0
17:15:41.885;-577.0;-1393.0
17:15:41.889;-519.0;-1225.0
17:15:41.893;-219.0;-876.0
17:15:41.897;-245.0;-878.0
17:15:41.901;-475.0;-1010.0
17:15:41.905;1031.0;1779.0
17:15:41.909;-325.0;-2.0
17:15:41.913;-381.0;-349.0
17:15:41.917;-115.0;-170.0
17:15:41.921;359.0;431.0
17:15:41.925;1031.0;1547.0
17:15:41.929;1089.0;1899.0
17:15:41.933;286.0;659.0
17:15:41.937;-349.0;-414.0
17:15:41.941;-540.0;-795.0
17:15:41.945;-585.0;-899.0
17:15:41.949;-560.0;-900.0
17:15:41.953;-549.0;-848.0
17:15:41.957;-583.0;-823.0
17:15:41.961;-547.0;-756.0
17:15:41.965;-527.0;-681.0
17:15:41.969;-288.0;-402.0
17:15:41.973;-256.0;-473.0
17:15:41.977;-472.0;-588.0
17:15:41.981;807.0;1049.0
17:15:41.985;-533.0;-247.0
17:15:41.989;-415.0;-164.0
17:15:41.993;-108.0;184.0
17:15:41.997;357.0;834.0
17:15:42.001;1087.0;1954.0
17:15:42.005;1223.0;2393.0
17:15:42.009;479.0;1232.0
17:15:42.013;-99.0;196.0
17:15:42.017;-359.0;-376.0
17:15:42.021;-374.0;-556.0
17:15:42.025;-423.0;-685.0
17:15:42.029;-439.0;-726.0
17:15:42.033;-452.0;-759.0
17:15:42.037;-425.0;-794.0
17:15:42.041;-434.0;-835.0
17:15:42.045;-81.0;-555.0
17:15:42.049;-71.0;-599.0
17:15:42.053;-269.0;-718.0
17:15:42.057;1127.0;1543.0
17:15:42.061;-269.0;-135.0
17:15:42.065;-193.0;-235.0
17:15:42.069;19.0;-35.0
17:15:42.073;450.0;522.0
17:15:42.077;1045.0;1526.0
17:15:42.081;1194.0;2020.0
17:15:42.085;439.0;764.0
17:15:42.089;-29.0;-186.0
17:15:42.093;-293.0;-644.0
17:15:42.097;-350.0;-823.0
17:15:42.101;-371.0;-931.0
17:15:42.105;-372.0;-910.0
17:15:42.109;-362.0;-893.0
17:15:42.113;-374.0;-893.0
17:15:42.117;-248.0;-567.0
17:15:42.121;-112.0;-583.0
17:15:42.125;-303.0;-802.0
17:15:42.129;211.0;-836.0
17:15:42.133;-670.0;-1478.0
17:15:42.137;-280.0;-572.0
17:15:42.141;60.0;6.0
17:15:42.145;516.0;783.0
17:15:42.149;1043.0;1968.0
17:15:42.153;1191.0;2551.0
17:15:42.157;636.0;1593.0
17:15:42.161;2.0;339.0
17:15:42.165;-268.0;-201.0
17:15:42.169;-319.0;-400.0
17:15:42.173;-406.0;-513.0
17:15:42.177;-375.0;-612.0
17:15:42.181;-379.0;-634.0
17:15:42.185;-407.0;-649.0
17:15:42.189;-379.0;-517.0
17:15:42.193;-40.0;-314.0
17:15:42.197;-82.0;-368.0
17:15:42.201;-334.0;-517.0
17:15:42.205;1585.0;3625.0
17:15:42.209;172.0;1506.0
17:15:42.213;-55.0;501.0
17:15:42.217;26.0;232.0
17:15:42.221;382.0;682.0
17:15:46.093;879.0;1633.0
17:15:46.097;87.0;193.0
17:15:46.101;-248.0;-412.0
17:15:46.105;-388.0;-762.0
17:15:46.109;-453.0;-880.0
17:15:46.113;-476.0;-942.0
17:15:46.117;-556.0;-1143.0
17:15:46.121;-523.0;-979.0
17:15:46.125;-449.0;-806.0
17:15:46.129;-250.0;-591.0
17:15:46.133;-390.0;-811.0
17:15:46.137;-452.0;-858.0
17:15:46.141;957.0;5847.0
17:15:46.145;229.0;2243.0
17:15:46.149;131.0;632.0
17:15:46.153;295.0;176.0
17:15:46.157;788.0;710.0
17:15:46.161;1176.0;1490.0
17:15:46.165;831.0;1030.0
17:15:46.169;73.0;-294.0
17:15:46.173;-253.0;-795.0
17:15:46.177;-323.0;-873.0
17:15:46.181;-361.0;-988.0
17:15:46.185;-401.0;-1004.0
17:15:46.189;-461.0;-986.0
17:15:46.193;-450.0;-960.0
17:15:46.197;-438.0;-897.0
17:15:46.201;-259.0;-521.0
17:15:46.205;-119.0;-400.0
17:15:46.209;-375.0;-662.0
17:15:46.213;283.0;-673.0
17:15:46.217;-1174.0;-1768.0
17:15:46.221;-594.0;-748.0
17:15:46.225;-66.0;70.0
17:15:46.229;437.0;719.0
17:15:46.233;1079.0;1725.0
17:15:46.237;1239.0;2197.0
17:15:46.241;661.0;1426.0
17:15:46.245;16.0;471.0
17:15:46.249;-271.0;90.0
17:15:46.253;-299.0;-79.0
17:15:46.257;-394.0;-256.0
17:15:46.261;-393.0;-397.0
17:15:46.265;-424.0;-354.0
17:15:46.269;-384.0;-431.0
17:15:46.273;-353.0;-106.0
17:15:46.277;-163.0;-116.0
17:15:46.281;-333.0;-242.0
17:15:46.285;-121.0;-578.0
17:15:46.289;-1057.0;-225.0
17:15:46.293;-471.0;41.0
17:15:46.297;-57.0;312.0
17:15:46.301;512.0;924.0
17:15:46.305;1222.0;1778.0
17:15:46.309;1547.0;2382.0
17:15:46.313;822.0;1583.0
17:15:46.317;149.0;456.0
17:15:46.321;-184.0;-128.0
17:15:46.325;-269.0;-436.0
17:15:46.329;-367.0;-592.0
17:15:46.333;-456.0;-733.0
17:15:46.337;-506.0;-795.0
17:15:46.341;-461.0;-768.0
17:15:46.345;-234.0;-411.0
17:15:46.349;-452.0;-760.0
17:15:46.353;-504.0;-848.0
17:15:46.357;2008.0;5228.0
17:15:46.361;556.0;1983.0
17:15:46.365;118.0;436.0
17:15:46.369;110.0;-10.0
17:15:46.373;503.0;408.0
17:15:46.377;973.0;1211.0
17:15:46.381;731.0;982.0
17:15:46.385;34.0;-161.0
17:15:46.389;-348.0;-868.0
17:15:46.393;-466.0;-1065.0
17:15:46.397;-562.0;-1158.0
17:15:46.401;-606.0;-1199.0
17:15:46.405;-579.0;-1152.0
17:15:46.409;-158.0;-673.0
17:15:46.413;-322.0;-916.0
17:15:46.417;-491.0;-1092.0
17:15:46.421;1164.0;2398.0
17:15:46.425;-67.0;574.0
17:15:46.429;-200.0;-129.0
17:15:46.433;-62.0;-102.0
17:15:46.437;341.0;425.0
17:15:46.441;834.0;1319.0
17:15:46.445;762.0;1487.0
17:15:46.449;73.0;307.0
17:15:46.453;-302.0;-507.0
17:15:46.457;-387.0;-727.0
17:15:46.461;-405.0;-872.0
17:15:46.465;-485.0;-994.0
17:15:46.469;-498.0;-1009.0
17:15:46.473;-185.0;-753.0
17:15:46.477;-273.0;-869.0
17:15:46.481;-544.0;-1105.0
17:15:46.485;848.0;1965.0
17:15:46.489;-280.0;188.0
17:15:50.212;-338.0;-291.0
17:15:50.216;492.0;1070.0
17:15:50.220;357.0;858.0
17:15:50.224;-158.0;-195.0
17:15:50.228;-371.0;-749.0
17:15:50.232;-389.0;-922.0
17:15:50.236;-409.0;-994.0
17:15:50.240;-473.0;-1080.0
17:15:50.244;-455.0;-1056.0
17:15:50.248;-133.0;-732.0
17:15:50.252;-77.0;-772.0
17:15:50.256;-286.0;-908.0
17:15:50.260;725.0;426.0
17:15:50.264;-513.0;-874.0
17:15:50.268;-353.0;-585.0
17:15:50.272;-48.0;-267.0
17:15:50.276;432.0;432.0
17:15:50.280;992.0;1420.0
17:15:50.284;1071.0;1767.0
17:15:50.288;383.0;723.0
17:15:50.292;-155.0;-183.0
17:15:50.296;-247.0;-407.0
17:15:50.300;-302.0;-648.0
17:15:50.304;-390.0;-761.0
17:15:50.308;-459.0;-854.0
17:15:50.312;-475.0;-855.0
17:15:50.316;-356.0;-606.0
17:15:50.320;-202.0;-614.0
17:15:50.324;-394.0;-804.0
17:15:50.328;-250.0;-1007.0
17:15:50.332;-778.0;-54.0
17:15:50.336;-449.0;-130.0
17:15:50.340;-59.0;-10.0
17:15:50.344;457.0;504.0
17:15:50.348;1083.0;1334.0
17:15:50.352;1431.0;1956.0
17:15:50.356;837.0;1260.0
17:15:50.360;110.0;202.0
17:15:50.364;-145.0;-286.0
17:15:50.368;-223.0;-466.0
17:15:50.372;-315.0;-552.0
17:15:50.376;-417.0;-681.0
17:15:50.380;-436.0;-689.0
17:15:50.384;-443.0;-685.0
17:15:50.388;-243.0;-423.0
17:15:50.392;-230.0;-516.0
17:15:50.396;-420.0;-664.0
17:15:50.400;506.0;-115.0
17:15:50.404;-1086.0;-1459.0
17:15:50.408;-563.0;-706.0
17:15:50.412;-92.0;-105.0
17:15:50.416;447.0;656.0
17:15:50.420;1162.0;1729.0
17:15:50.424;1334.0;2205.0
17:15:50.428;554.0;1203.0
17:15:50.432;-46.0;121.0
17:15:50.436;-235.0;-274.0
17:15:50.440;-262.0;-464.0
17:15:50.444;-316.0;-638.0
17:15:50.448;-380.0;-747.0
17:15:50.452;-415.0;-830.0
17:15:50.456;-418.0;-774.0
17:15:50.460;-108.0;-391.0
17:15:50.464;-325.0;-674.0
17:15:50.468;-516.0;-864.0
17:15:50.472;1912.0;4618.0
17:15:50.476;476.0;1713.0
17:15:50.480;82.0;220.0
17:15:50.484;149.0;-56.0
17:15:50.488;510.0;260.0
17:15:50.492;1002.0;1192.0
17:15:50.496;846.0;1248.0
17:15:50.500;128.0;128.0
17:15:50.504;-302.0;-652.0
17:15:50.508;-416.0;-922.0
17:15:50.512;-428.0;-950.0
17:15:50.516;-442.0;-963.0
17:15:50.520;-493.0;-1025.0
17:15:50.524;-497.0;-955.0
17:15:50.528;-286.0;-577.0
17:15:50.532;-211.0;-672.0
17:15:50.536;-413.0;-853.0
17:15:50.540;232.0;-574.0
17:15:50.544;-918.0;-1627.0
17:15:50.548;-435.0;-602.0
17:15:50.552;-14.0;167.0
17:15:50.556;422.0;955.0
17:15:50.560;1035.0;2133.0
17:15:50.564;1156.0;2613.0
17:15:50.568;503.0;1499.0
17:15:50.572;-13.0;451.0
17:15:50.576;-240.0;22.0
17:15:50.580;-316.0;-164.0
17:15:50.584;-310.0;-158.0
17:15:50.588;-357.0;-229.0
17:15:50.592;-398.0;-241.0
17:15:50.596;-403.0;-272.0
17:15:50.600;-172.0;16.0
17:15:50.604;-150.0;-79.0
17:15:50.608;-351.0;-249.0
17:15:54.597;491.0;735.0
17:15:54.601;565.0;1120.0
17:15:54.605;1026.0;2048.0
17:15:54.609;1219.0;2619.0
17:15:54.613;569.0;1716.0
17:15:54.617;-90.0;524.0
17:15:54.621;-368.0;-38.0
17:15:54.625;-446.0;-308.0
17:15:54.629;-474.0;-423.0
17:15:54.633;-454.0;-505.0
17:15:54.637;-505.0;-568.0
17:15:54.641;-518.0;-654.0
17:15:54.645;-484.0;-583.0
17:15:54.649;-240.0;-282.0
17:15:54.653;-172.0;-365.0
17:15:54.657;-410.0;-584.0
17:15:54.661;364.0;-180.0
17:15:54.665;-1144.0;-1510.0
17:15:54.669;-588.0;-695.0
17:15:54.673;-37.0;-12.0
17:15:54.677;525.0;728.0
17:15:54.681;1291.0;1802.0
17:15:54.685;1567.0;2352.0
17:15:54.689;764.0;1308.0
17:15:54.693;110.0;183.0
17:15:54.697;-185.0;-311.0
17:15:54.701;-343.0;-551.0
17:15:54.705;-344.0;-668.0
17:15:54.709;-312.0;-694.0
17:15:54.713;-259.0;-729.0
17:15:54.717;-288.0;-808.0
17:15:54.721;-238.0;-792.0
17:15:54.725;75.0;-457.0
17:15:54.729;31.0;-628.0
17:15:54.733;-206.0;-803.0
17:15:54.737;1784.0;3360.0
17:15:54.741;233.0;1173.0
17:15:54.745;54.0;262.0
17:15:54.749;302.0;183.0
17:15:54.753;727.0;756.0
17:15:54.757;1248.0;1778.0
17:15:54.761;1175.0;1927.0
17:15:54.765;379.0;599.0
17:15:54.769;-143.0;-317.0
17:15:54.773;-313.0;-675.0
17:15:54.777;-315.0;-752.0
17:15:54.781;-353.0;-877.0
17:15:54.785;-339.0;-892.0
17:15:54.789;-334.0;-922.0
17:15:54.793;-327.0;-922.0
17:15:54.797;-74.0;-532.0
17:15:54.801;-166.0;-650.0
17:15:54.805;-379.0;-773.0
17:15:54.809;2082.0;5536.0
17:15:54.813;473.0;2254.0
17:15:54.817;64.0;655.0
17:15:54.821;65.0;201.0
17:15:54.825;469.0;607.0
17:15:54.829;951.0;1585.0
17:15:54.833;789.0;1542.0
17:15:54.837;19.0;150.0
17:15:54.841;-413.0;-662.0
17:15:54.845;-502.0;-960.0
17:15:54.849;-533.0;-1022.0
17:15:54.853;-564.0;-1058.0
17:15:54.857;-591.0;-1097.0
17:15:54.861;-557.0;-1055.0
17:15:54.865;-528.0;-1043.0
17:15:54.869;-508.0;-907.0
17:15:54.873;-341.0;-713.0
17:15:54.877;-500.0;-848.0
17:15:54.881;-583.0;-895.0
17:15:54.885;1420.0;6624.0
17:15:54.889;367.0;2594.0
17:15:54.893;15.0;629.0
17:15:54.897;100.0;88.0
17:15:54.901;585.0;571.0
17:15:54.905;1037.0;1362.0
17:15:54.909;701.0;1002.0
17:15:54.913;1.0;-265.0
17:15:54.917;-401.0;-969.0
17:15:54.921;-472.0;-1176.0
17:15:54.925;-484.0;-1276.0
17:15:54.929;-483.0;-1326.0
17:15:54.933;-522.0;-1290.0
17:15:54.937;-557.0;-1211.0
17:15:54.941;-535.0;-1150.0
17:15:54.945;-584.0;-1063.0
17:15:54.949;-368.0;-710.0
17:15:54.953;-287.0;-730.0
17:15:54.957;-521.0;-936.0
17:15:54.961;-29.0;-947.0
17:15:54.965;-1511.0;-1907.0
17:15:54.969;-752.0;-913.0
17:15:54.973;-140.0;-197.0
17:15:54.977;462.0;571.0
17:15:54.981;1191.0;1726.0
17:15:54.985;1524.0;2342.0
17:15:54.989;818.0;1470.0
17:15:54.993;114.0;327.0
17:15:58.558;-199.0;-181.0
17:15:58.562;-454.0;-510.0
17:15:58.566;-611.0;-719.0
17:15:58.570;-563.0;-693.0
17:15:58.574;-534.0;-670.0
17:15:58.578;-167.0;-397.0
17:15:58.582;-65.0;-431.0
17:15:58.586;-324.0;-532.0
17:15:58.590;1322.0;1536.0
17:15:58.594;-271.0;7.0
17:15:58.598;-243.0;-132.0
17:15:58.602;35.0;90.0
17:15:58.606;539.0;690.0
17:15:58.610;1284.0;1793.0
17:15:58.614;1411.0;2202.0
17:15:58.618;607.0;1057.0
17:15:58.622;-42.0;61.0
17:15:58.626;-301.0;-411.0
17:15:58.630;-358.0;-665.0
17:15:58.634;-381.0;-716.0
17:15:58.638;-392.0;-810.0
17:15:58.642;-423.0;-854.0
17:15:58.646;-403.0;-786.0
17:15:58.650;-429.0;-785.0
17:15:58.654;-210.0;-556.0
17:15:58.658;-113.0;-571.0
17:15:58.662;-365.0;-807.0
17:15:58.666;407.0;-360.0
17:15:58.670;-1217.0;-1826.0
17:15:58.674;-597.0;-909.0
17:15:58.678;-93.0;-167.0
17:15:58.682;442.0;632.0
17:15:58.686;1153.0;1756.0
17:15:58.690;1388.0;2432.0
17:15:58.694;669.0;1339.0
17:15:58.698;56.0;161.0
17:15:58.702;-224.0;-324.0
17:15:58.706;-295.0;-543.0
17:15:58.710;-301.0;-651.0
17:15:58.714;-332.0;-743.0
17:15:58.718;-309.0;-731.0
17:15:58.722;-301.0;-724.0
17:15:58.726;-134.0;-493.0
17:15:58.730;-15.0;-510.0
17:15:58.734;-258.0;-723.0
17:15:58.738;107.0;-804.0
17:15:58.742;-1241.0;-1554.0
17:15:58.746;-624.0;-731.0
17:15:58.750;-119.0;-114.0
17:15:58.754;461.0;634.0
17:15:58.758;1176.0;1780.0
17:15:58.762;1460.0;2431.0
17:15:58.766;785.0;1500.0
17:15:58.770;57.0;211.0
17:15:58.774;-243.0;-347.0
17:15:58.778;-357.0;-537.0
17:15:58.782;-391.0;-618.0
17:15:58.786;-388.0;-626.0
17:15:58.790;-454.0;-645.0
17:15:58.794;-489.0;-606.0
17:15:58.798;-485.0;-541.0
17:15:58.802;-229.0;-256.0
17:15:58.806;-155.0;-320.0
17:15:58.810;-352.0;-470.0
17:15:58.814;980.0;1196.0
17:15:58.818;-564.0;-305.0
17:15:58.822;-398.0;-194.0
17:15:58.826;-38.0;165.0
17:15:58.830;458.0;778.0
17:15:58.834;1094.0;1916.0
17:15:58.838;1260.0;2362.0
17:15:58.842;449.0;1171.0
17:15:58.846;-148.0;91.0
17:15:58.850;-385.0;-331.0
17:15:58.854;-429.0;-513.0
17:15:58.858;-452.0;-610.0
17:15:58.862;-510.0;-673.0
17:15:58.866;-534.0;-659.0
17:15:58.870;-565.0;-665.0
17:15:58.874;-521.0;-646.0
17:15:58.878;-307.0;-367.0
17:15:58.882;-265.0;-424.0
17:15:58.886;-432.0;-565.0
17:15:58.890;108.0;-493.0
17:15:58.894;-1370.0;-1544.0
17:15:58.898;-716.0;-646.0
17:15:58.902;-98.0;68.0
17:15:58.906;456.0;807.0
17:15:58.910;1220.0;1929.0
17:15:58.914;1467.0;2569.0
17:15:58.918;702.0;1501.0
17:15:58.922;55.0;334.0
17:15:58.926;-254.0;-232.0
17:15:58.930;-251.0;-423.0
17:15:58.934;-281.0;-511.0
17:15:58.938;-377.0;-650.0
17:15:58.942;-420.0;-701.0
17:15:58.946;-446.0;-667.0
17:15:58.950;-136.0;-235.0
17:15:58.954;-353.0;-514.0
17:16:02.918;-502.0;-649.0
17:16:02.922;-94.0;-41.0
17:16:02.926;450.0;697.0
17:16:02.930;1234.0;1884.0
17:16:02.934;1419.0;2378.0
17:16:02.938;597.0;1174.0
17:16:02.942;-56.0;96.0
17:16:02.946;-325.0;-418.0
17:16:02.950;-355.0;-607.0
17:16:02.954;-418.0;-669.0
17:16:02.958;-477.0;-758.0
17:16:02.962;-399.0;-644.0
17:16:02.966;-279.0;-630.0
17:16:02.970;-496.0;-878.0
17:16:02.974;-466.0;-1099.0
17:16:02.978;-92.0;2631.0
17:16:02.982;-186.0;957.0
17:16:02.986;-7.0;325.0
17:16:02.990;340.0;434.0
17:16:02.994;1087.0;1235.0
17:16:02.998;1599.0;2050.0
17:16:03.002;1018.0;1293.0
17:16:03.006;217.0;-32.0
17:16:03.010;-82.0;-631.0
17:16:03.014;-200.0;-855.0
17:16:03.018;-121.0;-901.0
17:16:03.022;-180.0;-942.0
17:16:03.026;-102.0;-796.0
17:16:03.030;83.0;-671.0
17:16:03.034;-114.0;-783.0
17:16:03.038;-81.0;-865.0
17:16:03.042;440.0;4012.0
17:16:03.046;259.0;1628.0
17:16:03.050;396.0;736.0
17:16:03.054;746.0;746.0
17:16:03.058;1378.0;1537.0
17:16:03.062;1782.0;2376.0
17:16:03.066;1127.0;1567.0
17:16:03.070;359.0;350.0
17:16:03.074;-14.0;-251.0
17:16:03.078;-107.0;-450.0
17:16:03.082;-70.0;-532.0
17:16:03.086;-107.0;-581.0
17:16:03.090;-100.0;-535.0
17:16:03.094;-10.0;-312.0
17:16:03.098;98.0;-284.0
17:16:03.102;-75.0;-474.0
17:16:03.106;218.0;-625.0
17:16:03.110;-401.0;-1.0
17:16:03.114;6.0;135.0
17:16:03.118;313.0;372.0
17:16:03.122;778.0;910.0
17:16:03.126;1408.0;1957.0
17:16:03.130;1694.0;2607.0
17:16:03.134;967.0;1664.0
17:16:03.138;251.0;465.0
17:16:03.142;-61.0;-74.0
17:16:03.146;-242.0;-361.0
17:16:03.150;-248.0;-439.0
17:16:03.154;-296.0;-507.0
17:16:03.158;-345.0;-590.0
17:16:03.162;-300.0;-531.0
17:16:03.166;-248.0;-507.0
17:16:03.170;-144.0;-349.0
17:16:03.174;-260.0;-443.0
17:16:03.178;-309.0;-597.0
17:16:03.182;817.0;4732.0
17:16:03.186;308.0;1967.0
17:16:03.190;203.0;725.0
17:16:03.194;400.0;437.0
17:16:03.198;904.0;1077.0
17:16:03.202;1375.0;1786.0
17:16:03.206;840.0;1169.0
17:16:03.210;-1.0;-67.0
17:16:03.214;-428.0;-749.0
17:16:03.218;-518.0;-978.0
17:16:03.222;-543.0;-1062.0
17:16:03.226;-563.0;-1143.0
17:16:03.230;-593.0;-1172.0
17:16:03.234;-625.0;-1176.0
17:16:03.238;-641.0;-1144.0
17:16:03.242;-572.0;-1067.0
17:16:03.246;-261.0;-709.0
17:16:03.250;-451.0;-913.0
17:16:03.254;-578.0;-925.0
17:16:03.258;2756.0;6083.0
17:16:03.262;840.0;2338.0
17:16:03.266;103.0;489.0
17:16:03.270;46.0;-63.0
17:16:03.274;489.0;382.0
17:16:03.278;1052.0;1187.0
17:16:03.282;702.0;923.0
17:16:03.286;-129.0;-147.0
17:16:03.290;-599.0;-1030.0
17:16:03.294;-683.0;-1319.0
17:16:03.298;-691.0;-1418.0
17:16:03.302;-730.0;-1513.0
17:16:03.306;-701.0;-1539.0
17:16:03.310;-745.0;-1552.0
17:16:03.314;-709.0;-1495.0
17:16:07.060;-639.0;-1322.0
17:16:07.064;-710.0;-1370.0
17:16:07.068;1797.0;5510.0
17:16:07.072;419.0;1799.0
17:16:07.076;-46.0;83.0
17:16:07.080;78.0;-270.0
17:16:07.084;510.0;171.0
17:16:07.088;1010.0;975.0
17:16:07.092;624.0;690.0
17:16:07.096;-101.0;-552.0
17:16:07.100;-559.0;-1301.0
17:16:07.104;-664.0;-1577.0
17:16:07.108;-700.0;-1683.0
17:16:07.112;-700.0;-1663.0
17:16:07.116;-691.0;-1598.0
17:16:07.120;-641.0;-1571.0
17:16:07.124;-648.0;-1477.0
17:16:07.128;-244.0;-1198.0
17:16:07.132;-231.0;-1133.0
17:16:07.136;-429.0;-1216.0
17:16:07.140;1075.0;1236.0
17:16:07.144;-300.0;-291.0
17:16:07.148;-291.0;-450.0
17:16:07.152;-34.0;-166.0
17:16:07.156;425.0;487.0
17:16:07.160;1073.0;1604.0
17:16:07.164;1156.0;1988.0
17:16:07.168;372.0;791.0
17:16:07.172;-193.0;-167.0
17:16:07.176;-405.0;-502.0
17:16:07.180;-446.0;-555.0
17:16:07.184;-503.0;-748.0
17:16:07.188;-571.0;-826.0
17:16:07.192;-560.0;-858.0
17:16:07.196;-517.0;-849.0
17:16:07.200;-507.0;-778.0
17:16:07.204;-181.0;-617.0
17:16:07.208;-196.0;-607.0
17:16:07.212;-467.0;-767.0
17:16:07.216;1216.0;1929.0
17:16:07.220;-297.0;295.0
17:16:07.224;-338.0;-141.0
17:16:07.228;-176.0;-39.0
17:16:07.232;292.0;531.0
17:16:07.236;988.0;1628.0
17:16:07.240;1069.0;1932.0
17:16:07.244;237.0;683.0
17:16:07.248;-333.0;-363.0
17:16:07.252;-552.0;-756.0
17:16:07.256;-565.0;-834.0
17:16:07.260;-590.0;-945.0
17:16:07.264;-619.0;-996.0
17:16:07.268;-567.0;-988.0
17:16:07.272;-560.0;-916.0
17:16:07.276;-520.0;-831.0
17:16:07.280;-380.0;-591.0
17:16:07.284;-272.0;-561.0
17:16:07.288;-496.0;-712.0
17:16:07.292;6.0;-646.0
17:16:07.296;-1475.0;-1612.0
17:16:07.300;-775.0;-676.0
17:16:07.304;-187.0;22.0
17:16:07.308;392.0;802.0
17:16:07.312;1166.0;1885.0
17:16:07.316;1525.0;2570.0
17:16:07.320;730.0;1575.0
17:16:07.324;82.0;420.0
17:16:07.328;-259.0;-138.0
17:16:07.332;-342.0;-390.0
17:16:07.336;-366.0;-525.0
17:16:07.340;-450.0;-619.0
17:16:07.344;-486.0;-690.0
17:16:07.348;-414.0;-650.0
17:16:07.352;-447.0;-661.0
17:16:07.356;-417.0;-606.0
17:16:07.360;-151.0;-280.0
17:16:07.364;-338.0;-569.0
17:16:07.368;-442.0;-656.0
17:16:07.372;2786.0;6156.0
17:16:07.376;964.0;2507.0
17:16:07.380;359.0;703.0
17:16:07.384;315.0;208.0
17:16:07.388;722.0;588.0
17:16:07.392;1293.0;1457.0
17:16:07.396;1008.0;1317.0
17:16:07.400;100.0;-52.0
17:16:07.404;-355.0;-815.0
17:16:07.408;-604.0;-1200.0
17:16:07.412;-602.0;-1262.0
17:16:07.416;-561.0;-1300.0
17:16:07.420;-565.0;-1282.0
17:16:07.424;-567.0;-1242.0
17:16:07.428;-475.0;-1105.0
17:16:07.432;-253.0;-860.0
17:16:07.436;-117.0;-840.0
17:16:07.440;-338.0;-970.0
17:16:07.444;328.0;-719.0
17:16:07.448;-1131.0;-2041.0
17:16:07.452;-523.0;-979.0
17:16:07.456;-34.0;-225.0
17:16:11.137;429.0;589.0
17:16:11.141;179.0;364.0
17:16:11.145;-23.0;18.0
17:16:11.149;-103.0;-74.0
17:16:11.153;-112.0;-167.0
17:16:11.157;-112.0;-197.0
17:16:11.161;-162.0;-272.0
17:16:11.165;-174.0;-256.0
17:16:11.169;-142.0;-280.0
17:16:11.173;25.0;-164.0
17:16:11.177;-144.0;-293.0
17:16:11.181;-100.0;-462.0
17:16:11.185;122.0;3592.0
17:16:11.189;21.0;1633.0
17:16:11.193;154.0;764.0
17:16:11.197;438.0;713.0
17:16:11.201;1053.0;1477.0
17:16:11.205;1510.0;2266.0
17:16:11.209;927.0;1512.0
17:16:11.213;204.0;214.0
17:16:11.217;-194.0;-434.0
17:16:11.221;-319.0;-715.0
17:16:11.225;-368.0;-825.0
17:16:11.229;-407.0;-864.0
17:16:11.233;-485.0;-912.0
17:16:11.237;-501.0;-857.0
17:16:11.241;-467.0;-775.0
17:16:11.245;-132.0;-410.0
17:16:11.249;-218.0;-576.0
17:16:11.253;-434.0;-632.0
17:16:11.257;2160.0;4953.0
17:16:11.261;394.0;1988.0
17:16:11.265;5.0;529.0
17:16:11.269;138.0;200.0
17:16:11.273;523.0;589.0
17:16:11.277;1066.0;1475.0
17:16:11.281;970.0;1496.0
17:16:11.285;109.0;130.0
17:16:11.289;-418.0;-770.0
17:16:11.293;-605.0;-1093.0
17:16:11.297;-618.0;-1149.0
17:16:11.301;-705.0;-1265.0
17:16:11.305;-708.0;-1276.0
17:16:11.309;-703.0;-1228.0
17:16:11.313;-669.0;-1189.0
17:16:11.317;-614.0;-1090.0
17:16:11.321;-263.0;-662.0
17:16:11.325;-409.0;-877.0
17:16:11.329;-633.0;-984.0
17:16:11.333;2603.0;5441.0
17:16:11.337;597.0;2121.0
17:16:11.341;-17.0;394.0
17:16:11.345;-28.0;-79.0
17:16:11.349;438.0;372.0
17:16:11.353;1057.0;1263.0
17:16:11.357;861.0;1258.0
17:16:11.361;-6.0;-105.0
17:16:11.365;-516.0;-967.0
17:16:11.369;-706.0;-1291.0
17:16:11.373;-785.0;-1408.0
17:16:11.377;-811.0;-1481.0
17:16:11.381;-780.0;-1477.0
17:16:11.385;-762.0;-1513.0
17:16:11.389;-701.0;-1472.0
17:16:11.393;-633.0;-1364.0
17:16:11.397;-334.0;-924.0
17:16:11.401;-528.0;-1129.0
17:16:11.405;-604.0;-1148.0
17:16:11.409;2319.0;5506.0
17:16:11.413;606.0;1944.0
17:16:11.417;63.0;248.0
17:16:11.421;81.0;-214.0
17:16:11.425;495.0;208.0
17:16:11.429;1015.0;1233.0
17:16:11.433;765.0;1157.0
17:16:11.437;0.0;-178.0
17:16:11.441;-551.0;-997.0
17:16:11.445;-619.0;-1284.0
17:16:11.449;-621.0;-1398.0
17:16:11.453;-600.0;-1403.0
17:16:11.457;-616.0;-1445.0
17:16:11.461;-596.0;-1338.0
17:16:11.465;-530.0;-1280.0
17:16:11.469;-378.0;-973.0
17:16:11.473;-265.0;-870.0
17:16:11.477;-449.0;-990.0
17:16:11.481;176.0;-705.0
17:16:11.485;-1236.0;-1986.0
17:16:11.489;-622.0;-986.0
17:16:11.493;-160.0;-264.0
17:16:11.497;361.0;604.0
17:16:11.501;1063.0;1855.0
17:16:11.505;1362.0;2544.0
17:16:11.509;597.0;1469.0
17:16:11.513;-108.0;301.0
17:16:11.517;-363.0;-221.0
17:16:11.521;-393.0;-415.0
17:16:11.525;-429.0;-496.0
17:16:11.529;-459.0;-540.0
17:16:11.533;-462.0;-518.0
17:16:15.358;-535.0;-531.0
17:16:15.362;-360.0;-463.0
17:16:15.366;-469.0;-488.0
17:16:15.370;1972.0;4206.0
17:16:15.374;304.0;1823.0
17:16:15.378;-7.0;683.0
17:16:15.382;65.0;455.0
17:16:15.386;458.0;925.0
17:16:15.390;1054.0;1919.0
17:16:15.394;1025.0;2151.0
17:16:15.398;127.0;854.0
17:16:15.402;-380.0;-126.0
17:16:15.406;-586.0;-555.0
17:16:15.410;-649.0;-685.0
17:16:15.414;-668.0;-765.0
17:16:15.418;-709.0;-758.0
17:16:15.422;-735.0;-737.0
17:16:15.426;-744.0;-689.0
17:16:15.430;-712.0;-661.0
17:16:15.434;-354.0;-335.0
17:16:15.438;-258.0;-342.0
17:16:15.442;-507.0;-460.0
17:16:15.446;1139.0;1766.0
17:16:15.450;-494.0;325.0
17:16:15.454;-405.0;91.0
17:16:15.458;-168.0;252.0
17:16:15.462;374.0;878.0
17:16:15.466;1053.0;1855.0
17:16:15.470;1207.0;2311.0
17:16:15.474;452.0;1223.0
17:16:15.478;-226.0;123.0
17:16:15.482;-409.0;-275.0
17:16:15.486;-497.0;-521.0
17:16:15.490;-584.0;-716.0
17:16:15.494;-648.0;-846.0
17:16:15.498;-702.0;-908.0
17:16:15.502;-721.0;-939.0
17:16:15.506;-663.0;-878.0
17:16:15.510;-353.0;-722.0
17:16:15.514;-264.0;-720.0
17:16:15.518;-533.0;-893.0
17:16:15.522;1486.0;2451.0
17:16:15.526;-185.0;382.0
17:16:15.530;-365.0;-341.0
17:16:15.534;-166.0;-386.0
17:16:15.538;378.0;82.0
17:16:15.542;1058.0;1120.0
17:16:15.546;1077.0;1503.0
17:16:15.550;350.0;272.0
17:16:15.554;-293.0;-788.0
17:16:15.558;-503.0;-1216.0
17:16:15.562;-570.0;-1433.0
17:16:15.566;-553.0;-1514.0
17:16:15.570;-588.0;-1541.0
17:16:15.574;-570.0;-1446.0
17:16:15.578;-598.0;-1419.0
17:16:15.582;-280.0;-973.0
17:16:15.586;-349.0;-1079.0
17:16:15.590;-500.0;-1172.0
17:16:15.594;2182.0;5546.0
17:16:15.598;624.0;1908.0
17:16:15.602;125.0;216.0
17:16:15.606;156.0;-112.0
17:16:15.610;568.0;314.0
17:16:15.614;1104.0;1244.0
17:16:15.618;849.0;1104.0
17:16:15.622;23.0;-206.0
17:16:15.626;-389.0;-946.0
17:16:15.630;-596.0;-1234.0
17:16:15.634;-648.0;-1238.0
17:16:15.638;-600.0;-1220.0
17:16:15.642;-692.0;-1205.0
17:16:15.646;-660.0;-1135.0
17:16:15.650;-402.0;-787.0
17:16:15.654;-354.0;-787.0
17:16:15.658;-491.0;-834.0
17:16:15.662;541.0;230.0
17:16:15.666;-862.0;-1034.0
17:16:15.670;-499.0;-469.0
17:16:15.674;-79.0;117.0
17:16:15.678;397.0;810.0
17:16:15.682;1053.0;1920.0
17:16:15.686;1276.0;2441.0
17:16:15.690;532.0;1336.0
17:16:15.694;-92.0;267.0
17:16:15.698;-342.0;-266.0
17:16:15.702;-452.0;-437.0
17:16:15.706;-543.0;-613.0
17:16:15.710;-509.0;-654.0
17:16:15.714;-543.0;-659.0
17:16:15.718;-541.0;-710.0
17:16:15.722;-240.0;-449.0
17:16:15.726;-157.0;-553.0
17:16:15.730;-472.0;-722.0
17:16:15.734;964.0;1044.0
17:16:15.738;-533.0;-475.0
17:16:15.742;-370.0;-370.0
17:16:15.746;-48.0;-61.0
17:16:15.750;439.0;625.0
17:16:15.754;1104.0;1780.0
17:16:19.493;1140.0;2131.0
17:16:19.497;246.0;499.0
17:16:19.501;-164.0;-296.0
17:16:19.505;-384.0;-742.0
17:16:19.509;-492.0;-1015.0
17:16:19.513;-514.0;-1068.0
17:16:19.517;-391.0;-1028.0
17:16:19.521;-237.0;-961.0
17:16:19.525;-406.0;-1101.0
17:16:19.529;-243.0;-1249.0
17:16:19.533;-469.0;132.0
17:16:19.537;-280.0;-150.0
17:16:19.541;4.0;-59.0
17:16:19.545;407.0;421.0
17:16:19.549;1023.0;1367.0
17:16:19.553;1361.0;2130.0
17:16:19.557;780.0;1349.0
17:16:19.561;74.0;163.0
17:16:19.565;-211.0;-431.0
17:16:19.569;-299.0;-728.0
17:16:19.573;-359.0;-916.0
17:16:19.577;-387.0;-964.0
17:16:19.581;-423.0;-988.0
17:16:19.585;-328.0;-850.0
17:16:19.589;-238.0;-828.0
17:16:19.593;-454.0;-957.0
17:16:19.597;-289.0;-1110.0
17:16:19.601;-1014.0;197.0
17:16:19.605;-411.0;52.0
17:16:19.609;-700.0;-13.0
17:16:19.613;366.0;496.0
17:16:19.617;1242.0;1452.0
17:16:19.621;1428.0;2219.0
17:16:19.625;551.0;1382.0
17:16:19.629;98.0;144.0
17:16:19.633;-567.0;-363.0
17:16:19.637;-643.0;-614.0
17:16:19.641;-222.0;-787.0
17:16:19.645;-841.0;-858.0
17:16:19.649;-635.0;-889.0
17:16:19.653;-316.0;-777.0
17:16:19.657;102.0;-496.0
17:16:19.661;-423.0;-624.0
17:16:19.665;-661.0;-717.0
17:16:19.669;1762.0;3706.0
17:16:19.673;423.0;1427.0
17:16:19.677;67.0;344.0
17:16:19.681;189.0;97.0
17:16:19.685;468.0;489.0
17:16:19.689;1138.0;1450.0
17:16:19.693;1119.0;1649.0
17:16:19.697;437.0;455.0
17:16:19.701;33.0;-420.0
17:16:19.705;-92.0;-700.0
17:16:19.709;-108.0;-912.0
17:16:19.713;-217.0;-960.0
17:16:19.717;-121.0;-1095.0
17:16:19.721;-213.0;-1077.0
17:16:19.725;129.0;-810.0
17:16:19.729;216.0;-811.0
17:16:19.733;-168.0;-1026.0
17:16:19.737;594.0;-585.0
17:16:19.741;-760.0;-1885.0
17:16:19.745;-168.0;-983.0
17:16:19.749;454.0;-258.0
17:16:19.753;860.0;479.0
17:16:19.757;1454.0;1564.0
17:16:19.761;1488.0;2118.0
17:16:19.765;707.0;1001.0
17:16:19.769;210.0;-93.0
17:16:19.773;97.0;-596.0
17:16:19.777;91.0;-753.0
17:16:19.781;32.0;-899.0
17:16:19.785;36.0;-958.0
17:16:19.789;-170.0;-904.0
17:16:19.793;142.0;-566.0
17:16:19.797;17.0;-863.0
17:16:19.801;-257.0;-950.0
17:16:19.805;1598.0;3973.0
17:16:19.809;506.0;1390.0
17:16:19.813;271.0;182.0
17:16:19.817;379.0;-87.0
17:16:19.821;724.0;430.0
17:16:19.825;1074.0;1307.0
17:16:19.829;1170.0;1499.0
17:16:19.833;391.0;223.0
17:16:19.837;30.0;-638.0
17:16:19.841;-117.0;-958.0
17:16:19.845;-131.0;-1117.0
17:16:19.849;-130.0;-1158.0
17:16:19.853;-101.0;-1167.0
17:16:19.857;-45.0;-873.0
17:16:19.861;136.0;-886.0
17:16:19.865;-20.0;-1028.0
17:16:19.869;274.0;-1202.0
17:16:19.873;-541.0;-1253.0
17:16:19.877;-106.0;-673.0
17:16:19.881;316.0;-82.0
17:16:19.885;820.0;675.0
17:16:19.889;1394.0;1861.0
17:16:23.742;1676.0;2672.0
17:16:23.746;1058.0;1060.0
17:16:23.750;781.0;283.0
17:16:23.754;593.0;-97.0
17:16:23.758;573.0;-86.0
17:16:23.762;632.0;-237.0
17:16:23.766;379.0;-509.0
17:16:23.770;737.0;-612.0
17:16:23.774;-259.0;-1538.0
17:16:23.778;226.0;-555.0
17:16:23.782;599.0;26.0
17:16:23.786;946.0;778.0
17:16:23.790;1533.0;1961.0
17:16:23.794;1718.0;2599.0
17:16:23.798;1143.0;1546.0
17:16:23.802;589.0;406.0
17:16:23.806;420.0;-132.0
17:16:23.810;234.0;-485.0
17:16:23.814;154.0;-674.0
17:16:23.818;99.0;-689.0
17:16:23.822;133.0;-752.0
17:16:23.826;85.0;-783.0
17:16:23.830;227.0;-506.0
17:16:23.834;276.0;-565.0
17:16:23.838;-54.0;-672.0
17:16:23.842;661.0;-245.0
17:16:23.846;-566.0;-1488.0
17:16:23.850;-164.0;-677.0
17:16:23.854;250.0;-139.0
17:16:23.858;731.0;565.0
17:16:23.862;1257.0;1642.0
17:16:23.866;1517.0;2254.0
17:16:23.870;869.0;1200.0
17:16:23.874;324.0;42.0
17:16:23.878;145.0;-379.0
17:16:23.882;20.0;-672.0
17:16:23.886;-20.0;-797.0
17:16:23.890;-95.0;-912.0
17:16:23.894;-104.0;-1021.0
17:16:23.898;-112.0;-1044.0
17:16:23.902;-37.0;-983.0
17:16:23.906;161.0;-843.0
17:16:23.910;6.0;-1008.0
17:16:23.914;-129.0;-1119.0
17:16:23.918;943.0;4507.0
17:16:23.922;377.0;1586.0
17:16:23.926;277.0;245.0
17:16:23.930;348.0;-58.0
17:16:23.934;742.0;557.0
17:16:23.938;1151.0;1420.0
17:16:23.942;715.0;839.0
17:16:23.946;55.0;-434.0
17:16:23.950;-265.0;-1155.0
17:16:23.954;-356.0;-1456.0
17:16:23.958;-298.0;-1568.0
17:16:23.962;-371.0;-1627.0
17:16:23.966;-461.0;-1568.0
17:16:23.970;-459.0;-1508.0
17:16:23.974;-353.0;-1355.0
17:16:23.978;-253.0;-1265.0
17:16:23.982;-376.0;-1349.0
17:16:23.986;-330.0;-1509.0
17:16:23.990;-634.0;119.0
17:16:23.994;-473.0;-250.0
17:16:23.998;-164.0;-215.0
17:16:24.002;186.0;240.0
17:16:24.006;713.0;1218.0
17:16:24.010;981.0;2030.0
17:16:24.014;506.0;1227.0
17:16:24.018;-62.0;17.0
17:16:24.022;-378.0;-556.0
17:16:24.026;-359.0;-806.0
17:16:24.030;-397.0;-868.0
17:16:24.034;-463.0;-888.0
17:16:24.038;-529.0;-929.0
17:16:24.042;-530.0;-896.0
17:16:24.046;-281.0;-640.0
17:16:24.050;-224.0;-658.0
17:16:24.054;-485.0;-786.0
17:16:24.058;452.0;937.0
17:16:24.062;-636.0;-549.0
17:16:24.066;-486.0;-374.0
17:16:24.070;-319.0;-85.0
17:16:24.074;39.0;655.0
17:16:24.078;575.0;1810.0
17:16:24.082;639.0;2229.0
17:16:24.086;34.0;996.0
17:16:24.090;-359.0;-90.0
17:16:24.094;-524.0;-510.0
17:16:24.098;-535.0;-733.0
17:16:24.102;-595.0;-852.0
17:16:24.106;-545.0;-830.0
17:16:24.110;-560.0;-847.0
17:16:24.114;-492.0;-843.0
17:16:24.118;-374.0;-510.0
17:16:24.122;-267.0;-592.0
17:16:24.126;-574.0;-823.0
17:16:24.130;-263.0;-971.0
17:16:24.134;-961.0;-1590.0
17:16:24.138;-651.0;-713.0
17:16:28.061;-295.0;-177.0
17:16:28.065;-336.0;-50.0
17:16:28.069;-276.0;-26.0
17:16:28.073;-312.0;-83.0
17:16:28.077;-426.0;-278.0
17:16:28.081;-401.0;-307.0
17:16:28.085;-421.0;-332.0
17:16:28.089;-297.0;-117.0
17:16:28.093;-201.0;-110.0
17:16:28.097;-375.0;-344.0
17:16:28.101;-122.0;-678.0
17:16:28.105;-597.0;190.0
17:16:28.109;-349.0;62.0
17:16:28.113;-105.0;170.0
17:16:28.117;229.0;601.0
17:16:28.121;706.0;1547.0
17:16:28.125;965.0;2243.0
17:16:28.129;426.0;1368.0
17:16:28.133;-48.0;188.0
17:16:28.137;-270.0;-402.0
17:16:28.141;-291.0;-567.0
17:16:28.145;-357.0;-746.0
17:16:28.149;-427.0;-826.0
17:16:28.153;-449.0;-816.0
17:16:28.157;-377.0;-819.0
17:16:28.161;-64.0;-510.0
17:16:28.165;-171.0;-668.0
17:16:28.169;-460.0;-881.0
17:16:28.173;754.0;956.0
17:16:28.177;-491.0;-430.0
17:16:28.181;-363.0;-344.0
17:16:28.185;-121.0;-84.0
17:16:28.189;302.0;530.0
17:16:28.193;815.0;1501.0
17:16:28.197;861.0;1845.0
17:16:28.201;218.0;788.0
17:16:28.205;-335.0;-158.0
17:16:28.209;-439.0;-599.0
17:16:28.213;-509.0;-842.0
17:16:28.217;-502.0;-1021.0
17:16:28.221;-580.0;-1030.0
17:16:28.225;-547.0;-1088.0
17:16:28.229;-547.0;-896.0
17:16:28.233;-470.0;-828.0
17:16:28.237;-516.0;-933.0
17:16:28.241;-409.0;-1147.0
17:16:28.245;-536.0;823.0
17:16:28.249;-409.0;95.0
17:16:28.253;-144.0;-57.0
17:16:28.257;133.0;251.0
17:16:28.261;601.0;1030.0
17:16:28.265;912.0;1832.0
17:16:28.269;497.0;1168.0
17:16:28.273;-15.0;8.0
17:16:28.277;-283.0;-532.0
17:16:28.281;-348.0;-733.0
17:16:28.285;-413.0;-882.0
17:16:28.289;-427.0;-855.0
17:16:28.293;-501.0;-900.0
17:16:28.297;-320.0;-601.0
17:16:28.301;-264.0;-608.0
17:16:28.305;-444.0;-788.0
17:16:28.309;-134.0;-938.0
17:16:28.313;-1103.0;-1853.0
17:16:28.317;-539.0;-850.0
17:16:28.321;-127.0;-91.0
17:16:28.325;319.0;785.0
17:16:28.329;837.0;1813.0
17:16:28.333;1027.0;2489.0
17:16:28.337;482.0;1551.0
17:16:28.341;18.0;465.0
17:16:28.345;-159.0;-26.0
17:16:28.349;-248.0;-196.0
17:16:28.353;-300.0;-366.0
17:16:28.357;-342.0;-529.0
17:16:28.361;-433.0;-468.0
17:16:28.365;-270.0;-150.0
17:16:28.369;-139.0;-221.0
17:16:28.373;-350.0;-442.0
17:16:28.377;91.0;-544.0
17:16:28.381;-960.0;-1618.0
17:16:28.385;-588.0;-578.0
17:16:28.389;-126.0;154.0
17:16:28.393;252.0;915.0
17:16:28.397;776.0;2042.0
17:16:28.401;936.0;2619.0
17:16:28.405;395.0;1617.0
17:16:28.409;12.0;580.0
17:16:28.413;-160.0;131.0
17:16:28.417;-205.0;-101.0
17:16:28.421;-246.0;-188.0
17:16:28.425;-286.0;-286.0
17:16:28.429;-291.0;-310.0
17:16:28.433;13.0;-91.0
17:16:28.437;-12.0;-276.0
17:16:28.441;-278.0;-533.0
17:16:28.445;577.0;1105.0
17:16:28.449;-393.0;-151.0
17:16:28.453;-293.0;-163.0
17:16:28.457;-115.0;79.0
17:16:32.427;240.0;751.0
17:16:32.431;-101.0;-1.0
17:16:32.435;-207.0;-298.0
17:16:32.439;-311.0;-389.0
17:16:32.443;-244.0;-406.0
17:16:32.447;-280.0;-525.0
17:16:32.451;-239.0;-515.0
17:16:32.455;-243.0;-354.0
17:16:32.459;-130.0;-328.0
17:16:32.463;-356.0;-575.0
17:16:32.467;-202.0;-816.0
17:16:32.471;-280.0;1346.0
17:16:32.475;-288.0;473.0
17:16:32.479;-116.0;245.0
17:16:32.483;235.0;574.0
17:16:32.487;714.0;1431.0
17:16:32.491;911.0;2153.0
17:16:32.495;443.0;1313.0
17:16:32.499;-94.0;96.0
17:16:32.503;-350.0;-520.0
17:16:32.507;-331.0;-787.0
17:16:32.511;-346.0;-903.0
17:16:32.515;-410.0;-877.0
17:16:32.519;-473.0;-964.0
17:16:32.523;-470.0;-940.0
17:16:32.527;-291.0;-698.0
17:16:32.531;-477.0;-939.0
17:16:32.535;-510.0;-1008.0
17:16:32.539;1531.0;5130.0
17:16:32.543;301.0;1833.0
17:16:32.547;-74.0;291.0
17:16:32.551;-17.0;-46.0
17:16:32.555;306.0;460.0
17:16:32.559;718.0;1438.0
17:16:32.563;521.0;1240.0
17:16:32.567;-100.0;-80.0
17:16:32.571;-380.0;-816.0
17:16:32.575;-425.0;-1048.0
17:16:32.579;-421.0;-1110.0
17:16:32.583;-388.0;-1106.0
17:16:32.587;-422.0;-1069.0
17:16:32.591;-434.0;-855.0
17:16:32.595;-290.0;-505.0
17:16:32.599;-464.0;-752.0
17:16:32.603;-514.0;-919.0
17:16:32.607;1358.0;6234.0
17:16:32.611;322.0;2296.0
17:16:32.615;-15.0;609.0
17:16:32.619;56.0;196.0
17:16:32.623;420.0;643.0
17:16:32.627;772.0;1465.0
17:16:32.631;456.0;980.0
17:16:32.635;-60.0;-294.0
17:16:32.639;-279.0;-971.0
17:16:32.643;-396.0;-1138.0
17:16:32.647;-338.0;-1207.0
17:16:32.651;-293.0;-1273.0
17:16:32.655;-301.0;-1264.0
17:16:32.659;-335.0;-1164.0
17:16:32.663;-192.0;-798.0
17:16:32.667;-140.0;-767.0
17:16:32.671;-232.0;-998.0
17:16:32.675;207.0;-551.0
17:16:32.679;-580.0;-1605.0
17:16:32.683;-362.0;-936.0
17:16:32.687;-73.0;-369.0
17:16:32.691;196.0;423.0
17:16:32.695;712.0;1700.0
17:16:32.699;790.0;2321.0
17:16:32.703;213.0;1169.0
17:16:32.707;-159.0;85.0
17:16:32.711;-318.0;-465.0
17:16:32.715;-322.0;-645.0
17:16:32.719;-391.0;-755.0
17:16:32.723;-448.0;-792.0
17:16:32.727;-470.0;-792.0
17:16:32.731;-432.0;-805.0
17:16:32.735;-405.0;-563.0
17:16:32.739;-209.0;-279.0
17:16:32.743;-359.0;-600.0
17:16:32.747;-431.0;-752.0
17:16:32.751;1502.0;6495.0
17:16:32.755;483.0;2609.0
17:16:32.759;149.0;757.0
17:16:32.763;162.0;161.0
17:16:32.767;549.0;704.0
17:16:32.771;920.0;1546.0
17:16:32.775;530.0;1062.0
17:16:32.779;-158.0;-216.0
17:16:32.783;-450.0;-855.0
17:16:32.787;-482.0;-1044.0
17:16:32.791;-494.0;-1121.0
17:16:32.795;-488.0;-1136.0
17:16:32.799;-524.0;-1156.0
17:16:32.803;-542.0;-1144.0
17:16:32.807;-482.0;-1040.0
17:16:32.811;-402.0;-739.0
17:16:32.815;-242.0;-372.0
17:16:32.819;-383.0;-681.0
17:16:32.823;-476.0;-811.0
17:16:36.486;1283.0;6022.0
17:16:36.490;624.0;2721.0
17:16:36.494;610.0;1764.0
17:16:36.498;917.0;2063.0
17:16:36.502;588.0;1516.0
17:16:36.506;-11.0;16.0
17:16:36.510;-448.0;-872.0
17:16:36.514;-589.0;-1241.0
17:16:36.518;-545.0;-1298.0
17:16:36.522;-647.0;-1405.0
17:16:36.526;-640.0;-1368.0
17:16:36.530;-640.0;-1242.0
17:16:36.534;-612.0;-1211.0
17:16:36.538;-439.0;-748.0
17:16:36.542;-307.0;-684.0
17:16:36.546;-494.0;-963.0
17:16:36.550;65.0;-626.0
17:16:36.554;-1091.0;-1980.0
17:16:36.558;-586.0;-1024.0
17:16:36.562;-218.0;-201.0
17:16:36.566;163.0;683.0
17:16:36.570;805.0;2009.0
17:16:36.574;980.0;2688.0
17:16:36.578;348.0;1508.0
17:16:36.582;-142.0;323.0
17:16:36.586;-291.0;-149.0
17:16:36.590;-263.0;-328.0
17:16:36.594;-306.0;-417.0
17:16:36.598;-350.0;-451.0
17:16:36.602;-374.0;-455.0
17:16:36.606;-362.0;-484.0
17:16:36.610;-282.0;-360.0
17:16:36.614;-81.0;108.0
17:16:36.618;-240.0;-275.0
17:16:36.622;-344.0;-569.0
17:16:36.626;1782.0;5780.0
17:16:36.630;444.0;2286.0
17:16:36.634;84.0;562.0
17:16:36.638;61.0;85.0
17:16:36.642;378.0;528.0
17:16:36.646;829.0;1530.0
17:16:36.650;683.0;1423.0
17:16:36.654;91.0;0.0
17:16:36.658;-313.0;-898.0
17:16:36.662;-425.0;-1152.0
17:16:36.666;-426.0;-1151.0
17:16:36.670;-427.0;-1068.0
17:16:36.674;-496.0;-1074.0
17:16:36.678;-460.0;-1014.0
17:16:36.682;-450.0;-997.0
17:16:36.686;-455.0;-890.0
17:16:36.690;-440.0;-654.0
17:16:36.694;-219.0;-183.0
17:16:36.698;-344.0;-443.0
17:16:36.702;-356.0;-549.0
17:16:36.706;2042.0;6553.0
17:16:36.710;724.0;2656.0
17:16:36.714;291.0;812.0
17:16:36.718;253.0;348.0
17:16:36.722;553.0;862.0
17:16:36.726;1041.0;1727.0
17:16:36.730;828.0;1601.0
17:16:36.734;142.0;45.0
17:16:36.738;-213.0;-700.0
17:16:36.742;-343.0;-881.0
17:16:36.746;-307.0;-947.0
17:16:36.750;-282.0;-954.0
17:16:36.754;-318.0;-908.0
17:16:36.758;-371.0;-868.0
17:16:36.762;-336.0;-846.0
17:16:36.766;-241.0;-742.0
17:16:36.770;45.0;-111.0
17:16:36.774;-156.0;-404.0
17:16:36.778;-283.0;-684.0
17:16:36.782;1507.0;3551.0
17:16:36.786;150.0;1175.0
17:16:36.790;-73.0;107.0
17:16:36.794;-77.0;-91.0
17:16:36.798;354.0;369.0
17:16:36.802;842.0;1484.0
17:16:36.806;809.0;1731.0
17:16:36.810;97.0;297.0
17:16:36.814;-379.0;-737.0
17:16:36.818;-529.0;-1104.0
17:16:36.822;-560.0;-1136.0
17:16:36.826;-520.0;-1210.0
17:16:36.830;-544.0;-1205.0
17:16:36.834;-543.0;-1130.0
17:16:36.838;-501.0;-1049.0
17:16:36.842;-423.0;-889.0
17:16:36.846;-219.0;-483.0
17:16:36.850;-365.0;-805.0
17:16:36.854;-418.0;-947.0
17:16:36.858;1430.0;6006.0
17:16:36.862;418.0;2200.0
17:16:36.866;9.0;374.0
17:16:36.870;51.0;-19.0
17:16:36.874;425.0;506.0
17:16:36.878;816.0;1416.0
17:16:36.882;632.0;1188.0
17:16:40.549;32.0;-259.0
17:16:40.553;-255.0;-995.0
17:16:40.557;-390.0;-1348.0
17:16:40.561;-491.0;-1520.0
17:16:40.565;-527.0;-1469.0
17:16:40.569;-461.0;-1295.0
17:16:40.573;-311.0;-789.0
17:16:40.577;-380.0;-1059.0
17:16:40.581;-511.0;-1191.0
17:16:40.585;1691.0;5745.0
17:16:40.589;438.0;2059.0
17:16:40.593;19.0;201.0
17:16:40.597;36.0;-232.0
17:16:40.601;406.0;296.0
17:16:40.605;818.0;1359.0
17:16:40.609;669.0;1294.0
17:16:40.613;-45.0;-13.0
17:16:40.617;-357.0;-849.0
17:16:40.621;-427.0;-1136.0
17:16:40.625;-358.0;-1187.0
17:16:40.629;-448.0;-1295.0
17:16:40.633;-484.0;-1327.0
17:16:40.637;-530.0;-1263.0
17:16:40.641;-453.0;-1202.0
17:16:40.645;-487.0;-1203.0
17:16:40.649;-166.0;-560.0
17:16:40.653;-307.0;-776.0
17:16:40.657;-390.0;-951.0
17:16:40.661;1358.0;3565.0
17:16:40.665;203.0;1206.0
17:16:40.669;43.0;61.0
17:16:40.673;7.0;-138.0
17:16:40.677;405.0;409.0
17:16:40.681;879.0;1441.0
17:16:40.685;833.0;1665.0
17:16:40.689;188.0;364.0
17:16:40.693;-186.0;-640.0
17:16:40.697;-322.0;-968.0
17:16:40.701;-345.0;-1091.0
17:16:40.705;-396.0;-1209.0
17:16:40.709;-374.0;-1232.0
17:16:40.713;-425.0;-1172.0
17:16:40.717;-340.0;-1085.0
17:16:40.721;-378.0;-971.0
17:16:40.725;-265.0;-622.0
17:16:40.729;-169.0;-552.0
17:16:40.733;-372.0;-800.0
17:16:40.737;-346.0;-1043.0
17:16:40.741;-274.0;2219.0
17:16:40.745;-228.0;743.0
17:16:40.749;-64.0;214.0
17:16:40.753;133.0;327.0
17:16:40.757;728.0;1203.0
17:16:40.761;1071.0;2056.0
17:16:40.765;667.0;1405.0
17:16:40.769;16.0;91.0
17:16:40.773;-285.0;-552.0
17:16:40.777;-343.0;-824.0
17:16:40.781;-356.0;-968.0
17:16:40.785;-348.0;-983.0
17:16:40.789;-386.0;-1018.0
17:16:40.793;-353.0;-1008.0
17:16:40.797;-349.0;-1025.0
17:16:40.801;-368.0;-992.0
17:16:40.805;-125.0;-376.0
17:16:40.809;-267.0;-616.0
17:16:40.813;-382.0;-912.0
17:16:40.817;788.0;905.0
17:16:40.821;-354.0;-827.0
17:16:40.825;-332.0;-732.0
17:16:40.829;-34.0;-347.0
17:16:40.833;320.0;363.0
17:16:40.837;792.0;1515.0
17:16:40.841;876.0;2074.0
17:16:40.845;335.0;974.0
17:16:40.849;-70.0;-133.0
17:16:40.853;-274.0;-601.0
17:16:40.857;-323.0;-820.0
17:16:40.861;-366.0;-913.0
17:16:40.865;-387.0;-962.0
17:16:40.869;-413.0;-904.0
17:16:40.873;-455.0;-863.0
17:16:40.877;-388.0;-756.0
17:16:40.881;-166.0;-154.0
17:16:40.885;-196.0;-316.0
17:16:40.889;-350.0;-596.0
17:16:40.893;1066.0;2670.0
17:16:40.897;-63.0;691.0
17:16:40.901;-141.0;18.0
17:16:40.905;-44.0;16.0
17:16:40.909;273.0;588.0
17:16:40.913;697.0;1627.0
17:16:40.917;769.0;1978.0
17:16:40.921;221.0;746.0
17:16:40.925;-151.0;-299.0
17:16:40.929;-295.0;-741.0
17:16:40.933;-335.0;-867.0
17:16:40.937;-308.0;-886.0
17:16:40.941;-190.0;-829.0
17:16:40.945;-198.0;-819.0
17:16:44.884;-230.0;-785.0
17:16:44.888;-248.0;-833.0
17:16:44.892;-324.0;-839.0
17:16:44.896;1710.0;6502.0
17:16:44.900;525.0;2531.0
17:16:44.904;171.0;604.0
17:16:44.908;181.0;43.0
17:16:44.912;510.0;425.0
17:16:44.916;886.0;1276.0
17:16:44.920;683.0;1084.0
