0.23938351201399408,0.21817458803491746,0.19795497688190813,0.18094806840871225,0.16805471139748482,0.15929131825099566,0.153956467795266,0.15037975269785703,0.14791089746119093,0.14546880183825797,0.1423289625487516,0.13826165493189616,0.1331216129230504,0.1280987156613504,0.12412690933722285,0.12208056118552689,0.12256684206852629,0.12546349076974056,0.13092783106301095,0.13842680346916053,0.14718298446025266,0.15634418962678048,0.16486601336280635,0.1725436525250773,0.17920469520839505,0.18495898843974753,0.1901215371850347,0.19485416121610993,0.19980062790987732,0.20526630886992225,0.21135532689476774,0.21794727473627856,0.22453864821199054,0.2308936140544918,0.23667997442202812,0.24166905946607217,0.24577301228752246,0.2489001868443609,0.25129814048649524,0.2532722300954666,0.2551239354320199,0.25706056782041786,0.25892786648478033,0.2609461380986908,0.26312384525116905,0.26553092086648966,0.2683481233533132,0.2715483729951868,0.2758693588041082,0.28159052654868005,0.28875780962799547,0.29708780422025366,0.3056557718986612,0.31386002579425853,0.32062344540996107,0.3248866687702872,0.32582748508719417,0.32279758744499487,0.31620148061021647,0.3067116999583239,0.2953702575383969,0.2833774565108693,0.2716418388405597,0.26125875836794604,0.2527098254712686,0.2460403122768508,0.24092742793454452,0.2366368409264143,0.23277293416875086,0.22885119913784985,0.22458051535089227,0.21990372156833266,0.2149618169647332,0.21012876504639313,0.20568314051596892,0.2018680373768708,0.19888001520212079,0.19702148835959615,0.19630943426008785,0.19654355005914764,0.19737810959459043,0.19840674070754202,0.19920875457919476,0.19967205380190495,0.19962059163246035,0.19901087194362907,0.1979334662129632,0.19631800986212886,0.19472620122820375,0.19334915251863485,0.19225413899986885,0.19137642348851328,0.19030293270496956,0.18918597323156255,0.187896244943365,0.1864026710700538,0.1848193807640634,0.18315042161633763,0.18205012160090162,0.18178225100557635,0.1824211921254068,0.18379032383210714,0.18519300680169357,0.1863943692774982,0.186729375284986,0.1856203025904526,0.1827612669001509,0.17795225322533065,0.17211347595227078,0.16606069279021712,0.1606606988380442,0.1565488866209322,0.15346910966081503,0.15119646616679572,0.14821948178804334,0.1422078163250033,0.13033650634171345,0.10939512103149604,0.07779177655801377,0.03490730484643738,-0.018047315814710762,-0.07787150025230945,-0.139977320016664,-0.19781303510674744,-0.2449224653076556,-0.2756438324447805,-0.2860795068463323,-0.27510955336153825,-0.24362094687879438,-0.1953008120953774,-0.13569505006433505,-0.07128894851710463,-0.008866873020581456,0.04657177461481337,0.09133330871901181,0.12363249969540487,0.14350160981212307,0.1520009631907292,0.15201642211393981,0.1464796166326568,0.13822772255478294,0.12962947591165994,0.12196477677501796,0.11662907444421576,0.11400366589953398,0.11391102252048997,0.1157573420111968,0.11830817699655231,0.12108247314855525,0.12339091233828142,0.1248058328367689,0.12525250572245325,0.12475724604493883,0.12435410642193565,0.12509204727055934,0.12816958509130583,0.1347476694337097,0.14554781782929369,0.1612855794125187,0.18182337351757746,0.20631881543618588,0.2332642783493417,0.2604321469606848,0.28581461050066037,0.30724660696519074,0.3229453682509711,0.33178088726497373,0.3332091810895854,0.32802700127120543,0.31755288969732604,0.30360232055837455,0.2881941844636278,0.27311317674851676,0.2601008934469115,0.25049320718913876,0.24518474870413703,0.2446074816622819,0.24867423741007028,0.0,0.0,0.0,0.0,0.0,0.0,0.0,0.0,0.0,0.0,0.0,0.0,0.0,0.0,0.0,0.0,0.0,0.0,0.0,0.0,0.0,0.0,0.0,0.0,0.0,0.0,0.0,0.0,0.0,0.0,0.0,0.0,0.0,0.0,0.0,0.0,0.0,0.0,0.0,0.0,0.0,0.0,0.0,0.0,0.0,0.0,0.0,0.0,0.0,0.0,0.0,0.0,0.0,0.0,0.0,0.0,0.0,0.0,0.0,0.0,0.0,0.0,0.0,0.0,0.0,0.0,0.0,0.0,0.0,0.0,0.0,0.0,0.0,0.0,0.0,0.0,0.0,0.0,0.0,0.0,0.0,0.0,0.0,0.0,0.0,0.0,0.0,0.0,0.0,0.0,0.0,0.0,0.0,0.0,0.0,0.0,0.0,0.0,0.0,0.0,0.0,0.0,0.0,0.0,0.0,0.0,0.0,0.0,0.0,0.0,0.0,0.0,0.0,0.0,0.0,0.0,0.0,0.0,0.0,0.0,0.0,0.0,0.5525246699250267,0.5542007066938468,0.5576731139954303,0.5641450833450575,0.5724755937876748,0.580864881581885,0.5874087888164056,0.5894128782371852,0.5874411255054389,0.5816361826575774,0.5728738016627628,0.5625847288948725,0.5514923761018243,0.5424360697333181,0.536794154906423,0.5352618894763158,0.5377606689733396,0.5427065586252617,0.5498143284012894,0.5577202461550536,0.5651743411466019,0.5713763777228121,0.5754524519867572,0.5791039684851336,0.58387885502712,0.5917960574412555,0.6049920864722849,0.6245270884062094,0.6524063705163323,0.6885533759851582,0.7314950859074114,0.7784805669890079,0.8252588180828915,0.8685876990871878,0.9052812163994454,0.9332723718516515,0.9519690475057311,0.9617969394990515,0.965193267563089,0.9653332412567704,0.9653432326755202,0.9674194599320651,0.971556209510033,0.977408142109128,0.982960808122339,0.9856013880305872,0.9828698723583991,0.9722939072301228,0.9545411850287505,0.9308424219532003,0.9034716565508938,0.8751391208349407,0.8474468796362201,0.8229463872509614,0.8021258519911129,0.7841976197105736,0.7674083693114822,0.7487771738184489,0.727367756756206,0.7021837259702023,0.6733130406731137,0.6419463870881968,0.6092222691180296,0.5785135340133442,0.5520729965953799,0.5313194178286434,0.5164844048649115,0.5056309076135366,0.4978773403228541,0.4910741928202632,0.4832849822887157,0.4733621548900881,0.4609613628062176,0.44795476605672396,0.43660718289839,0.42974636655044374,0.43023990491526454,0.4405963209782424,0.46208427001325325,0.493947127386883,0.5337062420299842,0.5775926365973552,0.620833222065234,0.6599740791164835,0.691566202708335,0.713432850309191,0.7249453682794458,0.7259472329307782,0.7197879976998603,0.7091428351760592,0.6966145209077015,0.6842840692611132,0.6724156846993841,0.6628254885178755,0.6553340821718351,0.6492319892253863,0.6436227702427806,0.6366715911781906,0.629230845589884,0.6211490506540497,0.6124346817141391,0.6032152188322933,0.5927492157508788,0.5826650062602711,0.573632744904923,0.5665824504510337,0.562807667421806,0.5630402268541594,0.5701732835068247,0.5857029920311567,0.6100969279112063,0.6421458060603517,0.6774675147682461,0.7114086560924495,0.7361950887912108,0.7426495029534216,0.7214839446988972,0.6639202285599028,0.5667385102372814,0.43069341722972754,0.2622382485015096,0.073403161241007,-0.12036040306815132,-0.2990942496864071,-0.44394503732756185,-0.5391770565018482,-0.5746776222168831,-0.5485498284099262,-0.4645026880066979,-0.33375727179617165,-0.17230836647975958,0.0016718882247557549,0.16952231876620238,0.3179446280799714,0.4374199786069941,0.5238162139577454,0.5780213986663947,0.603601146477587,0.6090420598996027,0.6023821338777962,0.590897040458976,0.5800973724128016,0.5721273311227945,0.5693698161933436,0.5713472735878855,0.5763679866982435,0.5821733461592085,0.5854819199324649,0.5858049771728155,0.5824721447620705,0.5757147520906215,0.5665926408532639,0.5559025802375812,0.5467956315712126,0.5416158987867189,0.5424810716126931,0.5510119355473193,0.5673611721306248,0.5924621203928858,0.6254751410623092,0.6645747054569889,0.7071026261106692,0.7489942392018643,0.7879931640612727,0.8212585965943286,0.8466804851029441,0.863193316674019,0.869912369763155,0.8692346789573234,0.8632929128167826,0.8545176321142199,0.8451787216631068,0.8363836433981643,0.8297640168677466,0.8259613086921334,0.8251405799900446,0.8271641266521949,0.8314872617145751,0.0,0.0,0.0,0.0,0.0,0.0,0.0,0.0,0.0,0.0,0.0,0.0,0.0,0.0,0.0,0.0,0.0,0.0,0.0,0.0,0.0,0.0,0.0,0.0,0.0,0.0,0.0,0.0,0.0,0.0,0.0,0.0,0.0,0.0,0.0,0.0,0.0,0.0,0.0,0.0,0.0,0.0,0.0,0.0,0.0,0.0,0.0,0.0,0.0,0.0,0.0,0.0,0.0,0.0,0.0,0.0,0.0,0.0,0.0,0.0,0.0,0.0,0.0,0.0,0.0,0.0,0.0,0.0,0.0,0.0,0.0,0.0,0.0,0.0,0.0,0.0,0.0,0.0,0.0,0.0,0.0,0.0,0.0,0.0,0.0,0.0,0.0,0.0,0.0,0.0,0.0,0.0,0.0,0.0,0.0,0.0,0.0,0.0,0.0,0.0,0.0,0.0,0.0,0.0,0.0,0.0,0.0,0.0,0.0,0.0,0.0,0.0,0.0,0.0,0.0,0.0,0.0,0.0,0.0,0.0,0.0,0.0
-0.2449224653076556,-0.2756438324447805,-0.2860795068463323,-0.27510955336153825,-0.24362094687879438,-0.1953008120953774,-0.13569505006433505,-0.07128894851710463,-0.008866873020581456,0.04657177461481337,0.09133330871901181,0.12363249969540487,0.14350160981212307,0.1520009631907292,0.15201642211393981,0.1464796166326568,0.13822772255478294,0.12962947591165994,0.12196477677501796,0.11662907444421576,0.11400366589953398,0.11391102252048997,0.1157573420111968,0.11830817699655231,0.12108247314855525,0.12339091233828142,0.1248058328367689,0.12525250572245325,0.12475724604493883,0.12435410642193565,0.12509204727055934,0.12816958509130583,0.1347476694337097,0.14554781782929369,0.1612855794125187,0.18182337351757746,0.20631881543618588,0.2332642783493417,0.2604321469606848,0.28581461050066037,0.30724660696519074,0.3229453682509711,0.33178088726497373,0.3332091810895854,0.32802700127120543,0.31755288969732604,0.30360232055837455,0.2881941844636278,0.27311317674851676,0.2601008934469115,0.25049320718913876,0.24518474870413703,0.2446074816622819,0.24867423741007028,0.256909454510226,0.26872209307576683,0.28324842090005375,0.29932463129287096,0.3153507290231766,0.32991488449902523,0.3417234821879033,0.3498783732001269,0.35404178092346006,0.3542236762872066,0.35158886334557604,0.34742652264391416,0.343080102104471,0.3395939400472481,0.33719169544098904,0.33580555451589494,0.3344149831806843,0.3314512024504099,0.32514609917103604,0.3137913366243611,0.2966567891048131,0.27374679502782684,0.24606517587463933,0.21551469223770767,0.1843705284821178,0.15563923329753104,0.13187735178290824,0.11498162937587114,0.10588328530437932,0.10409997241824234,0.10883413226304303,0.11831431331455172,0.13042890962684928,0.14312097316575043,0.15439600510268692,0.1636602530862895,0.1707085696913594,0.1759825214220902,0.1803586610271215,0.18450421199457198,0.18977038956973025,0.19669038679612286,0.20527467753863426,0.21503377952486014,0.22477602172119762,0.2339132664750963,0.2415200679161404,0.24689750332203944,0.2497088980225988,0.24971465454519556,0.24775108519955777,0.24455900805577188,0.24094262557567042,0.2375887483945769,0.23481742986203938,0.23286267612310244,0.23123808163113713,0.22909856225998348,0.225468598766555,0.21963236504054615,0.21109885693653868,0.19956162407949382,0.1851877186283424,0.1687186112485065,0.1513838868268448,0.13520615016526286,0.12209650543494822,0.11386644656717691,0.11196862373045804,0.11693351793052109,0.12926580674759727,0.14817305827549412,0.1720015258211509,0.19843540460893236,0.22452729789389644,0.24800556849967373,0.26670972202527743,0.2791931334928959,0.28490218548740665,0.28394123505389846,0.2776901804397029,0.26781461957297986,0.2561121178719842,0.2441684867730789,0.23281349042128488,0.22297419500682003,0.21486115712820478,0.2083977091992276,0.20343478805875112,0.19958282642704717,0.19741833255324448,0.19737480570719582,0.19983319882283715,0.2047867225533796,0.21115311449067578,0.21757911153635767,0.22133089286338387,0.21882671925261607,0.20613865704800804,0.17941752863121216,0.1367468024069486,0.07786258487646583,0.004993845302524414,-0.07704110785366647,-0.1615502785599909,-0.23982866346649492,-0.3034190377027596,-0.34512852018059864,-0.360220872755341,-0.3475328256314191,-0.30869034349406393,-0.24876715157510398,-0.17506686232963942,-0.09588225287534854,-0.01951487273889076,0.04796032070321735,0.10244423556183681,0.142368143690344,0.1684563670046439,0.18274296741924598,0.18892084684090202,0.19054225531709285,0.19063466094306647,0.1912861810540425,0.0,0.0,0.0,0.0,0.0,0.0,0.0,0.0,0.0,0.0,0.0,0.0,0.0,0.0,0.0,0.0,0.0,0.0,0.0,0.0,0.0,0.0,0.0,0.0,0.0,0.0,0.0,0.0,0.0,0.0,0.0,0.0,0.0,0.0,0.0,0.0,0.0,0.0,0.0,0.0,0.0,0.0,0.0,0.0,0.0,0.0,0.0,0.0,0.0,0.0,0.0,0.0,0.0,0.0,0.0,0.0,0.0,0.0,0.0,0.0,0.0,0.0,0.0,0.0,0.0,0.0,0.0,0.0,0.0,0.0,0.0,0.0,0.0,0.0,0.0,0.0,0.0,0.0,0.0,0.0,0.0,0.0,0.0,0.0,0.0,0.0,0.0,0.0,0.0,0.0,0.0,0.0,0.0,0.0,0.0,0.0,0.0,0.0,0.0,0.0,0.0,0.0,0.0,0.0,0.0,0.0,0.0,0.0,0.0,0.0,0.0,0.0,0.0,0.0,0.0,0.0,0.0,0.0,0.0,0.0,0.0,0.0,-0.44394503732756185,-0.5391770565018482,-0.5746776222168831,-0.5485498284099262,-0.4645026880066979,-0.33375727179617165,-0.17230836647975958,0.0016718882247557549,0.16952231876620238,0.3179446280799714,0.4374199786069941,0.5238162139577454,0.5780213986663947,0.603601146477587,0.6090420598996027,0.6023821338777962,0.590897040458976,0.5800973724128016,0.5721273311227945,0.5693698161933436,0.5713472735878855,0.5763679866982435,0.5821733461592085,0.5854819199324649,0.5858049771728155,0.5824721447620705,0.5757147520906215,0.5665926408532639,0.5559025802375812,0.5467956315712126,0.5416158987867189,0.5424810716126931,0.5510119355473193,0.5673611721306248,0.5924621203928858,0.6254751410623092,0.6645747054569889,0.7071026261106692,0.7489942392018643,0.7879931640612727,0.8212585965943286,0.8466804851029441,0.863193316674019,0.869912369763155,0.8692346789573234,0.8632929128167826,0.8545176321142199,0.8451787216631068,0.8363836433981643,0.8297640168677466,0.8259613086921334,0.8251405799900446,0.8271641266521949,0.8314872617145751,0.8378184512865221,0.8462911706891136,0.8569999192654315,0.8696400924047153,0.8826596484620541,0.895004849477034,0.9050124439784163,0.9110975099663716,0.912116058157236,0.9067305007747288,0.8964887833568929,0.8828301901366509,0.8676317750976397,0.8527285243761916,0.8385312608059359,0.8264712977450721,0.8160342048961274,0.805709979058434,0.7933409905951474,0.7758103333414631,0.752333115565186,0.7222588413506539,0.6862124901017598,0.6461356057620209,0.6041403355492919,0.5649421464427135,0.5324016573476387,0.5097298572527226,0.49893022092889444,0.49948051765576745,0.51137967465797,0.5323956872832082,0.5593764236625082,0.5887789337616393,0.616208424967904,0.6401112341217752,0.6588118476210924,0.6715996671777733,0.678627646594384,0.6796518962578794,0.6771157287178284,0.672348726746839,0.6664950695729899,0.6604378519214652,0.6537247742100676,0.6481522779758999,0.6441934061895888,0.6421670214323671,0.6422480572485465,0.6433143948381824,0.6466089757717065,0.6519905329494428,0.6590774175741756,0.6672620233575343,0.6752001568466613,0.6828070531693351,0.6889205278619477,0.6923718431017543,0.692275989466522,0.6883191738650095,0.6810514222359833,0.6707055159834538,0.6577663188989993,0.6430552432660513,0.6273716035707344,0.6130476822553468,0.6016974805072256,0.5948567455100335,0.5938344970655804,0.5986293100134856,0.6106657948332834,0.6294886009985405,0.6536925482441671,0.6810257200478868,0.7077289611070227,0.7319435525392947,0.7511603761991181,0.7635477848057222,0.768216943030193,0.7643192647884628,0.7539693396390444,0.7390491825248391,0.7216397083372823,0.7036136894655792,0.6853406396372282,0.668922367126921,0.6551928572045123,0.6449140518961026,0.6390104359009654,0.6375776902280954,0.6432650700746464,0.6574603483053304,0.6806831560553813,0.7118303194665022,0.746480117337495,0.7798882101617045,0.803913050942059,0.8088135561750792,0.784650203032039,0.7221300337957411,0.6176878962969932,0.4720097750538069,0.29189456737425407,0.0901435646073856,-0.11668551160443363,-0.30734275481623624,-0.4620052177398125,-0.5643871752734446,-0.6043630738172678,-0.5806023236306601,-0.49758589442460216,-0.36773724772340444,-0.2081441239956676,-0.037592655246338924,0.12533607898113336,0.2684305112851208,0.38391776113911746,0.46982932219325746,0.52917776332459,0.5670368180180076,0.5925400142116724,0.6132659315024533,0.6348465437272528,0.660167727492221,0.0,0.0,0.0,0.0,0.0,0.0,0.0,0.0,0.0,0.0,0.0,0.0,0.0,0.0,0.0,0.0,0.0,0.0,0.0,0.0,0.0,0.0,0.0,0.0,0.0,0.0,0.0,0.0,0.0,0.0,0.0,0.0,0.0,0.0,0.0,0.0,0.0,0.0,0.0,0.0,0.0,0.0,0.0,0.0,0.0,0.0,0.0,0.0,0.0,0.0,0.0,0.0,0.0,0.0,0.0,0.0,0.0,0.0,0.0,0.0,0.0,0.0,0.0,0.0,0.0,0.0,0.0,0.0,0.0,0.0,0.0,0.0,0.0,0.0,0.0,0.0,0.0,0.0,0.0,0.0,0.0,0.0,0.0,0.0,0.0,0.0,0.0,0.0,0.0,0.0,0.0,0.0,0.0,0.0,0.0,0.0,0.0,0.0,0.0,0.0,0.0,0.0,0.0,0.0,0.0,0.0,0.0,0.0,0.0,0.0,0.0,0.0,0.0,0.0,0.0,0.0,0.0,0.0,0.0,0.0,0.0,0.0
-0.3034190377027596,-0.34512852018059864,-0.360220872755341,-0.3475328256314191,-0.30869034349406393,-0.24876715157510398,-0.17506686232963942,-0.09588225287534854,-0.01951487273889076,0.04796032070321735,0.10244423556183681,0.142368143690344,0.1684563670046439,0.18274296741924598,0.18892084684090202,0.19054225531709285,0.19063466094306647,0.1912861810540425,0.19308744104280895,0.19665783842822873,0.20168810271949209,0.20765760173033343,0.21411599510344112,0.2203366755080338,0.22694934889051985,0.23429132493439908,0.24267275522803136,0.25215923630085507,0.26199637244593793,0.2718631806452443,0.28068149550208105,0.28718888492088307,0.2902024774982691,0.2885788442541236,0.2824346009608224,0.2722521072968025,0.2591312832087385,0.24460161286408078,0.2300677054258565,0.21739035481894176,0.20771941217738393,0.2016121024225957,0.19900074822989244,0.1990518183659312,0.20112236162597225,0.20417812876693509,0.20728970462743473,0.20982941695962148,0.21138269527098155,0.21235442240711533,0.21353256387714126,0.21595864051362895,0.22065808568935055,0.2281883704866497,0.2388247702505433,0.2525422930035472,0.2688169027396034,0.2866250036255989,0.30439539344924293,0.3207416136672491,0.3345164948736257,0.3451122004641143,0.35259192156184715,0.35748918928758683,0.36118084431071257,0.36494701733012125,0.3698103828932975,0.37622540733831783,0.38373509609353185,0.39152881069754064,0.3980013014145679,0.40131994910593116,0.3998588931147885,0.3924434124534168,0.37915767539518497,0.3607627131347825,0.33879057108882316,0.3152548814377142,0.2920102889346731,0.27119060456163446,0.2539581850584732,0.24062333278034534,0.2306508697606399,0.2224956664116938,0.21506065137819866,0.20689373711415837,0.19695006726517236,0.1849049275238573,0.17094663814037328,0.15699864354032106,0.14532627787942778,0.13854586194918225,0.13915898528707468,0.14864334341528407,0.16832871065938085,0.19788298377260838,0.23554938941488845,0.2782386564162027,0.32150495222544523,0.3611080128095114,0.3925753070214323,0.4121462642549885,0.41731832754533077,0.4069703114059667,0.3823280441620266,0.34596013253272895,0.30168304691929315,0.2539995975540229,0.2071861379394748,0.16548793063499465,0.1316212185379302,0.10679228355427763,0.09068086756271508,0.08144749817553407,0.07707594767905608,0.0749087184913598,0.0726236854934034,0.06874917652849265,0.0626680095563816,0.05562992676859072,0.04930516287579199,0.045735649593320556,0.04681748549427021,0.05349265740677272,0.06655217693659496,0.08522535737448401,0.10778283830895619,0.1319340715065578,0.15488984668602593,0.17533590226849927,0.19233688904729127,0.205935085474019,0.21705065751884542,0.22659186361825795,0.23681511925068516,0.2492248259217345,0.2646126495225022,0.282772948216087,0.30200179234395186,0.3206280140423529,0.3361537297574691,0.34609868930501186,0.34849523891332856,0.3420039022693541,0.32705923079284305,0.3050275720190371,0.2782217792794009,0.24947371143282324,0.22125628569856615,0.19632676102332022,0.17615068152431265,0.16108863361989192,0.15045218395231794,0.1423660047459351,0.13559438584121464,0.12850116996090014,0.11998187125929691,0.10975121782255116,0.09809485506612454,0.08668219926771185,0.07714867011931123,0.0709696674912746,0.06905025169278442,0.0712720565806204,0.07705904569067581,0.08501505988944925,0.09347375884812945,0.1009828239173539,0.10651171469812463,0.11057770221430022,0.11465469691647757,0.12114947318832571,0.1329153961419234,0.15226822976962534,0.18128898917089714,0.2204536965960883,0.26849904290078136,0.322389797382537,0.0,0.0,0.0,0.0,0.0,0.0,0.0,0.0,0.0,0.0,0.0,0.0,0.0,0.0,0.0,0.0,0.0,0.0,0.0,0.0,0.0,0.0,0.0,0.0,0.0,0.0,0.0,0.0,0.0,0.0,0.0,0.0,0.0,0.0,0.0,0.0,0.0,0.0,0.0,0.0,0.0,0.0,0.0,0.0,0.0,0.0,0.0,0.0,0.0,0.0,0.0,0.0,0.0,0.0,0.0,0.0,0.0,0.0,0.0,0.0,0.0,0.0,0.0,0.0,0.0,0.0,0.0,0.0,0.0,0.0,0.0,0.0,0.0,0.0,0.0,0.0,0.0,0.0,0.0,0.0,0.0,0.0,0.0,0.0,0.0,0.0,0.0,0.0,0.0,0.0,0.0,0.0,0.0,0.0,0.0,0.0,0.0,0.0,0.0,0.0,0.0,0.0,0.0,0.0,0.0,0.0,0.0,0.0,0.0,0.0,0.0,0.0,0.0,0.0,0.0,0.0,0.0,0.0,0.0,0.0,0.0,0.0,-0.4620052177398125,-0.5643871752734446,-0.6043630738172678,-0.5806023236306601,-0.49758589442460216,-0.36773724772340444,-0.2081441239956676,-0.037592655246338924,0.12533607898113336,0.2684305112851208,0.38391776113911746,0.46982932219325746,0.52917776332459,0.5670368180180076,0.5925400142116724,0.6132659315024533,0.6348465437272528,0.660167727492221,0.6880129568004995,0.7178165854059312,0.746743619415094,0.771896178289654,0.7911576916598518,0.8023298182136829,0.8075018744131337,0.8086197896770969,0.8081196027454393,0.8082178575030903,0.8091297813710521,0.8124245056005951,0.8173815866240116,0.8223558549246546,0.8252780233463286,0.8232675149443838,0.8163004474003946,0.8044285937266795,0.7887535548847966,0.7711707362959245,0.7529874708846738,0.7374092728602935,0.7259958110238116,0.719346491408187,0.7170634492455203,0.7170663847444648,0.718824995368388,0.7207148962302128,0.7214258952770445,0.7203216401058801,0.7169822927556802,0.713221683716395,0.7112870295351486,0.7138764683195928,0.7235798309662398,0.7418345021812915,0.7695363699848046,0.8065327408624838,0.8512697807007913,0.9007663613387775,0.9502366512569378,0.9957509866835101,1.033567320337102,1.0612193886760357,1.0779528917113153,1.083865256342163,1.082497919108582,1.0773427173306906,1.0718109255414896,1.0683721053776423,1.0669418667189854,1.0678499355436355,1.0689060051693624,1.0669715416779104,1.0587913190439695,1.0407852922784981,1.013162962455735,0.9767341981755248,0.9338904051563408,0.8881120533496832,0.8427426842268873,0.8018513395562792,0.7673779309044857,0.7396265497440682,0.7174327876553969,0.6987837578728612,0.6814118085432279,0.6626240182611038,0.6404828766164329,0.6144350276569144,0.5851770083384346,0.5562892289350129,0.5316442352443874,0.5154509712857908,0.5114372676584321,0.5209897439547251,0.5459951337718792,0.5851314026731788,0.6349993172531552,0.6905893089619773,0.7449842982837778,0.793734754222266,0.8323368387576031,0.8579547272576871,0.8697413502655227,0.8676873773196864,0.8556209874535147,0.8370971132540002,0.8156802645826987,0.794284040116063,0.7736581903226653,0.7559506319106768,0.7411874776917051,0.7289315246197641,0.7188267299666032,0.7098699253343661,0.7043743658320512,0.703638557272419,0.7087224106212289,0.7196987907288619,0.7337049698205129,0.7482049348286867,0.7567243322061288,0.7506760390094486,0.7205708514911207,0.6566113010167847,0.554594610446868,0.4136512923069172,0.2388597611872286,0.04159075567547058,-0.16260404055182576,-0.35192882729835573,-0.505352427486998,-0.6046412801095077,-0.6373893401401795,-0.6005193990006441,-0.4968032785854822,-0.3382361130637483,-0.14283078816225317,0.06829237080814178,0.2727959315809296,0.4544025424165678,0.601132604830336,0.7074417590400662,0.773974081756463,0.804927747890112,0.8104611470295258,0.8007914241353941,0.7853441098460884,0.7712733658737023,0.7613239305047823,0.7579941884407538,0.7600805619779448,0.7647518742653685,0.7685726499909418,0.7671558293893297,0.7600707333855611,0.7470636112365627,0.7293141008812317,0.7090813662993729,0.6879980956832706,0.6700304013051429,0.6572465265912426,0.6505527354718955,0.6495900826078038,0.6519778770873393,0.6567894386470384,0.6619644690101067,0.6658349115778505,0.6675737513963782,0.6664568876680043,0.6650928442678719,0.6659384028001036,0.6718588984902891,0.6855574201849524,0.7079352421869542,0.7409628951711835,0.7840061795624856,0.8348275461276612,0.8898690317709415,0.0,0.0,0.0,0.0,0.0,0.0,0.0,0.0,0.0,0.0,0.0,0.0,0.0,0.0,0.0,0.0,0.0,0.0,0.0,0.0,0.0,0.0,0.0,0.0,0.0,0.0,0.0,0.0,0.0,0.0,0.0,0.0,0.0,0.0,0.0,0.0,0.0,0.0,0.0,0.0,0.0,0.0,0.0,0.0,0.0,0.0,0.0,0.0,0.0,0.0,0.0,0.0,0.0,0.0,0.0,0.0,0.0,0.0,0.0,0.0,0.0,0.0,0.0,0.0,0.0,0.0,0.0,0.0,0.0,0.0,0.0,0.0,0.0,0.0,0.0,0.0,0.0,0.0,0.0,0.0,0.0,0.0,0.0,0.0,0.0,0.0,0.0,0.0,0.0,0.0,0.0,0.0,0.0,0.0,0.0,0.0,0.0,0.0,0.0,0.0,0.0,0.0,0.0,0.0,0.0,0.0,0.0,0.0,0.0,0.0,0.0,0.0,0.0,0.0,0.0,0.0,0.0,0.0,0.0,0.0,0.0,0.0
0.0749087184913598,0.0726236854934034,0.06874917652849265,0.0626680095563816,0.05562992676859072,0.04930516287579199,0.045735649593320556,0.04681748549427021,0.05349265740677272,0.06655217693659496,0.08522535737448401,0.10778283830895619,0.1319340715065578,0.15488984668602593,0.17533590226849927,0.19233688904729127,0.205935085474019,0.21705065751884542,0.22659186361825795,0.23681511925068516,0.2492248259217345,0.2646126495225022,0.282772948216087,0.30200179234395186,0.3206280140423529,0.3361537297574691,0.34609868930501186,0.34849523891332856,0.3420039022693541,0.32705923079284305,0.3050275720190371,0.2782217792794009,0.24947371143282324,0.22125628569856615,0.19632676102332022,0.17615068152431265,0.16108863361989192,0.15045218395231794,0.1423660047459351,0.13559438584121464,0.12850116996090014,0.11998187125929691,0.10975121782255116,0.09809485506612454,0.08668219926771185,0.07714867011931123,0.0709696674912746,0.06905025169278442,0.0712720565806204,0.07705904569067581,0.08501505988944925,0.09347375884812945,0.1009828239173539,0.10651171469812463,0.11057770221430022,0.11465469691647757,0.12114947318832571,0.1329153961419234,0.15226822976962534,0.18128898917089714,0.2204536965960883,0.26849904290078136,0.322389797382537,0.37735765358734535,0.4284330589500547,0.4704513408838535,0.4991482429075173,0.5118641986231505,0.507720488778027,0.4884738182372528,0.4573531580524143,0.4187324809517885,0.3773766907909715,0.3374053366293696,0.3026107785846493,0.27506200212600607,0.25536861992344184,0.24288918295879264,0.23581405663313013,0.23270869103024502,0.23175269242141525,0.2314698458545242,0.2309098137077004,0.22938274501875527,0.22723902793796008,0.22469136033032977,0.22191956137063476,0.2189304444566082,0.21527761915081742,0.21086708255333325,0.20534905093843964,0.19851079768785423,0.19043709659740435,0.181432507498611,0.17265046173439907,0.16544483916087555,0.16137252647162306,0.16194374873820055,0.16819190351683888,0.18084745656297957,0.19971420396577363,0.2236958676786059,0.25084249895439176,0.2783694290286074,0.3035532634675998,0.32358804262707097,0.33615173727027015,0.33974124917058296,0.3336679992503954,0.3188034536466516,0.29679473721712457,0.2700111181289426,0.2411876892980364,0.21272653769805416,0.1873799770551383,0.16682648713951678,0.15190752052904952,0.1426341294254899,0.13791490486674676,0.13716789739135227,0.1389590256209858,0.1418450535147273,0.14464632410599315,0.14628673455309146,0.1470039003650241,0.14699099975038954,0.14669424066624775,0.14665851878649644,0.14709791618005474,0.14868895843614355,0.1515348445426256,0.15546460760985067,0.16008001164290606,0.16456735061152208,0.16866557300653323,0.17182140440235036,0.17355232456747813,0.17350150449931567,0.17121858081874794,0.16702662805912022,0.16114397873883868,0.1539629132895701,0.14603429519936525,0.13770774434449307,0.13009375246979632,0.1239777445723693,0.12000448386876189,0.11856708589941484,0.11934383201381935,0.1224896318858473,0.12757783018086588,0.13399126498540048,0.14101169904092964,0.14754656903326074,0.15339880560716576,0.15814586362534067,0.1615298023212726,0.16345631218244444,0.16362596028824974,0.1626660911213405,0.16083869603522818,0.15843296089021983,0.155761491941667,0.15304901795697384,0.15079080787132368,0.14916595937335608,0.1482522298960873,0.14806667170088958,0.14875756012227387,0.15023216453044155,0.15230252617315687,0.15472112653221637,0.15723528359585334,0.15959393204078923,0.16177522672744607,0.16368200596123866,0.16524595911892384,0.16640389549081713,0.0,0.0,0.0,0.0,0.0,0.0,0.0,0.0,0.0,0.0,0.0,0.0,0.0,0.0,0.0,0.0,0.0,0.0,0.0,0.0,0.0,0.0,0.0,0.0,0.0,0.0,0.0,0.0,0.0,0.0,0.0,0.0,0.0,0.0,0.0,0.0,0.0,0.0,0.0,0.0,0.0,0.0,0.0,0.0,0.0,0.0,0.0,0.0,0.0,0.0,0.0,0.0,0.0,0.0,0.0,0.0,0.0,0.0,0.0,0.0,0.0,0.0,0.0,0.0,0.0,0.0,0.0,0.0,0.0,0.0,0.0,0.0,0.0,0.0,0.0,0.0,0.0,0.0,0.0,0.0,0.0,0.0,0.0,0.0,0.0,0.0,0.0,0.0,0.0,0.0,0.0,0.0,0.0,0.0,0.0,0.0,0.0,0.0,0.0,0.0,0.0,0.0,0.0,0.0,0.0,0.0,0.0,0.0,0.0,0.0,0.0,0.0,0.0,0.0,0.0,0.0,0.0,0.0,0.0,0.0,0.0,0.0,0.703638557272419,0.7087224106212289,0.7196987907288619,0.7337049698205129,0.7482049348286867,0.7567243322061288,0.7506760390094486,0.7205708514911207,0.6566113010167847,0.554594610446868,0.4136512923069172,0.2388597611872286,0.04159075567547058,-0.16260404055182576,-0.35192882729835573,-0.505352427486998,-0.6046412801095077,-0.6373893401401795,-0.6005193990006441,-0.4968032785854822,-0.3382361130637483,-0.14283078816225317,0.06829237080814178,0.2727959315809296,0.4544025424165678,0.601132604830336,0.7074417590400662,0.773974081756463,0.804927747890112,0.8104611470295258,0.8007914241353941,0.7853441098460884,0.7712733658737023,0.7613239305047823,0.7579941884407538,0.7600805619779448,0.7647518742653685,0.7685726499909418,0.7671558293893297,0.7600707333855611,0.7470636112365627,0.7293141008812317,0.7090813662993729,0.6879980956832706,0.6700304013051429,0.6572465265912426,0.6505527354718955,0.6495900826078038,0.6519778770873393,0.6567894386470384,0.6619644690101067,0.6658349115778505,0.6675737513963782,0.6664568876680043,0.6650928442678719,0.6659384028001036,0.6718588984902891,0.6855574201849524,0.7079352421869542,0.7409628951711835,0.7840061795624856,0.8348275461276612,0.8898690317709415,0.9441120448693943,0.9939405550435507,1.0362855755810518,1.0696201339883877,1.0941806433569305,1.1114170248488173,1.124266171278872,1.1363820652463794,1.150876146015635,1.1693180166860475,1.190420737353242,1.2122638238353047,1.2311532493443502,1.2430224652184616,1.2444553900151645,1.2324436694995884,1.2084311426320915,1.1747144297848484,1.1350212193181948,1.0936381987636277,1.0533795715804604,1.0181026575521768,0.9887718462985097,0.9644723289766282,0.9428210075120906,0.9197375940470656,0.8935070093431908,0.8623039504335724,0.8257577896157959,0.785124243021161,0.7421499397887044,0.7014945295077789,0.6669460441216253,0.6416307883244508,0.6274274785302313,0.6237987811705645,0.6305497046095425,0.6452965839853264,0.6648645275568281,0.6859132006037058,0.7045011535240955,0.7198491672105867,0.731275929263757,0.7391137784503281,0.7443989226771802,0.7472200562725017,0.750160090672017,0.7542551992804503,0.7599090323455446,0.7668656264376457,0.7731113092631083,0.7791280729346151,0.7841415904179166,0.7876042411848009,0.7893323301981111,0.7882682778470412,0.786515877299531,0.7848065975003287,0.7837093913892018,0.7834963947253838,0.7828239484758368,0.7828178145445093,0.7826984999202652,0.7813669025223234,0.7776604592526567,0.7694158311968017,0.757791840006705,0.7429316734998447,0.7255000633844547,0.7066587964998441,0.686800809416914,0.6689156822320518,0.654234452077492,0.6432581111637481,0.6356571337470314,0.6293804641216304,0.6241564431966437,0.618369921285587,0.6106841011161908,0.6005200717023655,0.587346157862122,0.5741709003698534,0.5638860730843357,0.5598777262411739,0.5653830096576998,0.581674340933016,0.6110119633649289,0.6528537009697238,0.7047634179669108,0.762625319597593,0.8199928676202254,0.8726009090526153,0.9155860090951597,0.9453109340397434,0.9598676295374864,0.958032613599507,0.9430844234881505,0.9185291956415589,0.8885847744616459,0.85741215297727,0.8277447655711364,0.8026482202606271,0.7827699086310891,0.7673949178412051,0.7549566764170538,0.7435774567581243,0.7321941208154165,0.7196366145979396,0.7054177657288655,0.6898115309416407,0.673265584476411,0.6577616555393655,0.6442974028338811,0.6333351235064351,0.6246663854662277,0.0,0.0,0.0,0.0,0.0,0.0,0.0,0.0,0.0,0.0,0.0,0.0,0.0,0.0,0.0,0.0,0.0,0.0,0.0,0.0,0.0,0.0,0.0,0.0,0.0,0.0,0.0,0.0,0.0,0.0,0.0,0.0,0.0,0.0,0.0,0.0,0.0,0.0,0.0,0.0,0.0,0.0,0.0,0.0,0.0,0.0,0.0,0.0,0.0,0.0,0.0,0.0,0.0,0.0,0.0,0.0,0.0,0.0,0.0,0.0,0.0,0.0,0.0,0.0,0.0,0.0,0.0,0.0,0.0,0.0,0.0,0.0,0.0,0.0,0.0,0.0,0.0,0.0,0.0,0.0,0.0,0.0,0.0,0.0,0.0,0.0,0.0,0.0,0.0,0.0,0.0,0.0,0.0,0.0,0.0,0.0,0.0,0.0,0.0,0.0,0.0,0.0,0.0,0.0,0.0,0.0,0.0,0.0,0.0,0.0,0.0,0.0,0.0,0.0,0.0,0.0,0.0,0.0,0.0,0.0,0.0,0.0
0.5118641986231505,0.507720488778027,0.4884738182372528,0.4573531580524143,0.4187324809517885,0.3773766907909715,0.3374053366293696,0.3026107785846493,0.27506200212600607,0.25536861992344184,0.24288918295879264,0.23581405663313013,0.23270869103024502,0.23175269242141525,0.2314698458545242,0.2309098137077004,0.22938274501875527,0.22723902793796008,0.22469136033032977,0.22191956137063476,0.2189304444566082,0.21527761915081742,0.21086708255333325,0.20534905093843964,0.19851079768785423,0.19043709659740435,0.181432507498611,0.17265046173439907,0.16544483916087555,0.16137252647162306,0.16194374873820055,0.16819190351683888,0.18084745656297957,0.19971420396577363,0.2236958676786059,0.25084249895439176,0.2783694290286074,0.3035532634675998,0.32358804262707097,0.33615173727027015,0.33974124917058296,0.3336679992503954,0.3188034536466516,0.29679473721712457,0.2700111181289426,0.2411876892980364,0.21272653769805416,0.1873799770551383,0.16682648713951678,0.15190752052904952,0.1426341294254899,0.13791490486674676,0.13716789739135227,0.1389590256209858,0.1418450535147273,0.14464632410599315,0.14628673455309146,0.1470039003650241,0.14699099975038954,0.14669424066624775,0.14665851878649644,0.14709791618005474,0.14868895843614355,0.1515348445426256,0.15546460760985067,0.16008001164290606,0.16456735061152208,0.16866557300653323,0.17182140440235036,0.17355232456747813,0.17350150449931567,0.17121858081874794,0.16702662805912022,0.16114397873883868,0.1539629132895701,0.14603429519936525,0.13770774434449307,0.13009375246979632,0.1239777445723693,0.12000448386876189,0.11856708589941484,0.11934383201381935,0.1224896318858473,0.12757783018086588,0.13399126498540048,0.14101169904092964,0.14754656903326074,0.15339880560716576,0.15814586362534067,0.1615298023212726,0.16345631218244444,0.16362596028824974,0.1626660911213405,0.16083869603522818,0.15843296089021983,0.155761491941667,0.15304901795697384,0.15079080787132368,0.14916595937335608,0.1482522298960873,0.14806667170088958,0.14875756012227387,0.15023216453044155,0.15230252617315687,0.15472112653221637,0.15723528359585334,0.15959393204078923,0.16177522672744607,0.16368200596123866,0.16524595911892384,0.16640389549081713,0.16682546321289948,0.16667865808258092,0.1658811474280802,0.1643682483396115,0.16216499718380806,0.1592533257078324,0.15639381645646466,0.15443725444696893,0.15451908229390438,0.157926098876799,0.16565652971487868,0.17880882811222254,0.19757349695299514,0.2212449923621329,0.2481638721314692,0.2755803996987633,0.3008645287291891,0.32115489340312425,0.33411987837531165,0.3384016453861394,0.33354360562058605,0.3210805462350171,0.30334478399501547,0.2832175871741773,0.26345236993827015,0.24567432090410504,0.23083923090521408,0.21807880153861603,0.20507101104903488,0.18850309449040092,0.16453442910781263,0.1306045814327043,0.08540122562955413,0.029719676210655743,-0.03333890951519248,-0.09897436855074652,-0.16033753938406956,-0.2105399879826611,-0.24353462800536593,-0.25518091352078587,-0.24437034878926844,-0.21208086938294665,-0.16220006643490795,-0.10053089436556048,-0.03383304895398541,0.030918119292514097,0.08839279756889287,0.134661966557944,0.16774203712391386,0.18751481561281508,0.19516021250770418,0.1933156328306067,0.1848362021450131,0.17256326652893783,0.1590266041123456,0.1460736877519066,0.13562256046682067,0.1289631337126331,0.1270528606292297,0.1305383926118761,0.13945663170854453,0.15400160165809176,0.1736222734989704,0.19721605345580928,0.2231501310906332,0.24875459203827904,0.27250640227324935,0.0,0.0,0.0,0.0,0.0,0.0,0.0,0.0,0.0,0.0,0.0,0.0,0.0,0.0,0.0,0.0,0.0,0.0,0.0,0.0,0.0,0.0,0.0,0.0,0.0,0.0,0.0,0.0,0.0,0.0,0.0,0.0,0.0,0.0,0.0,0.0,0.0,0.0,0.0,0.0,0.0,0.0,0.0,0.0,0.0,0.0,0.0,0.0,0.0,0.0,0.0,0.0,0.0,0.0,0.0,0.0,0.0,0.0,0.0,0.0,0.0,0.0,0.0,0.0,0.0,0.0,0.0,0.0,0.0,0.0,0.0,0.0,0.0,0.0,0.0,0.0,0.0,0.0,0.0,0.0,0.0,0.0,0.0,0.0,0.0,0.0,0.0,0.0,0.0,0.0,0.0,0.0,0.0,0.0,0.0,0.0,0.0,0.0,0.0,0.0,0.0,0.0,0.0,0.0,0.0,0.0,0.0,0.0,0.0,0.0,0.0,0.0,0.0,0.0,0.0,0.0,0.0,0.0,0.0,0.0,0.0,0.0,1.0941806433569305,1.1114170248488173,1.124266171278872,1.1363820652463794,1.150876146015635,1.1693180166860475,1.190420737353242,1.2122638238353047,1.2311532493443502,1.2430224652184616,1.2444553900151645,1.2324436694995884,1.2084311426320915,1.1747144297848484,1.1350212193181948,1.0936381987636277,1.0533795715804604,1.0181026575521768,0.9887718462985097,0.9644723289766282,0.9428210075120906,0.9197375940470656,0.8935070093431908,0.8623039504335724,0.8257577896157959,0.785124243021161,0.7421499397887044,0.7014945295077789,0.6669460441216253,0.6416307883244508,0.6274274785302313,0.6237987811705645,0.6305497046095425,0.6452965839853264,0.6648645275568281,0.6859132006037058,0.7045011535240955,0.7198491672105867,0.731275929263757,0.7391137784503281,0.7443989226771802,0.7472200562725017,0.750160090672017,0.7542551992804503,0.7599090323455446,0.7668656264376457,0.7731113092631083,0.7791280729346151,0.7841415904179166,0.7876042411848009,0.7893323301981111,0.7882682778470412,0.786515877299531,0.7848065975003287,0.7837093913892018,0.7834963947253838,0.7828239484758368,0.7828178145445093,0.7826984999202652,0.7813669025223234,0.7776604592526567,0.7694158311968017,0.757791840006705,0.7429316734998447,0.7255000633844547,0.7066587964998441,0.686800809416914,0.6689156822320518,0.654234452077492,0.6432581111637481,0.6356571337470314,0.6293804641216304,0.6241564431966437,0.618369921285587,0.6106841011161908,0.6005200717023655,0.587346157862122,0.5741709003698534,0.5638860730843357,0.5598777262411739,0.5653830096576998,0.581674340933016,0.6110119633649289,0.6528537009697238,0.7047634179669108,0.762625319597593,0.8199928676202254,0.8726009090526153,0.9155860090951597,0.9453109340397434,0.9598676295374864,0.958032613599507,0.9430844234881505,0.9185291956415589,0.8885847744616459,0.85741215297727,0.8277447655711364,0.8026482202606271,0.7827699086310891,0.7673949178412051,0.7549566764170538,0.7435774567581243,0.7321941208154165,0.7196366145979396,0.7054177657288655,0.6898115309416407,0.673265584476411,0.6577616555393655,0.6442974028338811,0.6333351235064351,0.6246663854662277,0.6166200188377577,0.609024712912701,0.600574553789429,0.5901978114403894,0.5774780308258871,0.562093751627811,0.5467864465484775,0.534260270594552,0.5277205525453161,0.5302896761855466,0.5434144745413596,0.5691861981145645,0.6069567708807196,0.6541390885421705,0.7064984655608271,0.7578190423603626,0.8040707218421952,0.8413088581036472,0.8674477416123481,0.8827072549361076,0.8884401266725694,0.890011128335827,0.8924407187493288,0.900001464174381,0.9148360211990868,0.9347051105102487,0.9563938185912569,0.9722696191171368,0.9725350036465797,0.946964787462066,0.8856974591911373,0.785482765908118,0.6469829225839285,0.47681991758415965,0.28722946877561817,0.09336712446710638,-0.08499438156786238,-0.23030259302336664,-0.328762243559451,-0.37250584991082963,-0.36193134453550363,-0.3017188165190129,-0.20327622506787466,-0.0813880906994979,0.04839288727799702,0.17120127631087959,0.27801256766290183,0.36334167232411957,0.4262137007266093,0.46929162446682365,0.4966389251854917,0.5148807233842335,0.5291228019081294,0.5429610786783825,0.558217612010629,0.5742568158453293,0.5915854751328983,0.609606189540203,0.6280352632508348,0.6471435995544343,0.6666318601509517,0.688608033322531,0.714029211549911,0.7431623611029291,0.7752824236768425,0.8077353143856739,0.8391593190835412,0.0,0.0,0.0,0.0,0.0,0.0,0.0,0.0,0.0,0.0,0.0,0.0,0.0,0.0,0.0,0.0,0.0,0.0,0.0,0.0,0.0,0.0,0.0,0.0,0.0,0.0,0.0,0.0,0.0,0.0,0.0,0.0,0.0,0.0,0.0,0.0,0.0,0.0,0.0,0.0,0.0,0.0,0.0,0.0,0.0,0.0,0.0,0.0,0.0,0.0,0.0,0.0,0.0,0.0,0.0,0.0,0.0,0.0,0.0,0.0,0.0,0.0,0.0,0.0,0.0,0.0,0.0,0.0,0.0,0.0,0.0,0.0,0.0,0.0,0.0,0.0,0.0,0.0,0.0,0.0,0.0,0.0,0.0,0.0,0.0,0.0,0.0,0.0,0.0,0.0,0.0,0.0,0.0,0.0,0.0,0.0,0.0,0.0,0.0,0.0,0.0,0.0,0.0,0.0,0.0,0.0,0.0,0.0,0.0,0.0,0.0,0.0,0.0,0.0,0.0,0.0,0.0,0.0,0.0,0.0,0.0,0.0
-0.09897436855074652,-0.16033753938406956,-0.2105399879826611,-0.24353462800536593,-0.25518091352078587,-0.24437034878926844,-0.21208086938294665,-0.16220006643490795,-0.10053089436556048,-0.03383304895398541,0.030918119292514097,0.08839279756889287,0.134661966557944,0.16774203712391386,0.18751481561281508,0.19516021250770418,0.1933156328306067,0.1848362021450131,0.17256326652893783,0.1590266041123456,0.1460736877519066,0.13562256046682067,0.1289631337126331,0.1270528606292297,0.1305383926118761,0.13945663170854453,0.15400160165809176,0.1736222734989704,0.19721605345580928,0.2231501310906332,0.24875459203827904,0.27250640227324935,0.2925195031522342,0.30727353278977687,0.3157618695693903,0.3165753543444039,0.3110116233498069,0.30029545060793383,0.28616581204082836,0.27060038623691973,0.25483501059444524,0.24124302915668866,0.23126001813791952,0.2258402512305202,0.22543890290444915,0.22968345225626183,0.23861328122769088,0.25164178946511195,0.2678991546136813,0.2862111247912579,0.30474418258049385,0.32195333562334894,0.33597140509499424,0.3448952446903049,0.3469833466780667,0.3406493951987311,0.32548208708752646,0.30221933918141053,0.2727687784771381,0.2399844932742581,0.2069886820583181,0.17737866358341162,0.15412068720723215,0.1391461819504067,0.1329856398704496,0.1344322811503525,0.14154196551289067,0.15135023222534905,0.1608569948914014,0.16783345478706216,0.17134360003689808,0.1727810045800277,0.17526993683154815,0.18345584321665975,0.20268126970367478,0.23774568435621551,0.29213295940664213,0.366506001740375,0.4582309106355358,0.5613315476136431,0.6669331744462871,0.7649886470230545,0.845165222496681,0.8987293963263873,0.9199818255236115,0.9069897512292971,0.8624868093363919,0.7925161998158681,0.7056795199954164,0.6117589329654135,0.520160211207544,0.4391668375555339,0.37446373741109945,0.32907621654982017,0.3035360404072154,0.29629510659367625,0.30460746664505456,0.3246544655655403,0.35221516894404176,0.38303643344141863,0.41295245667160957,0.4385892287722936,0.45683032697757225,0.46528786140459427,0.4625368264756219,0.44809085257519593,0.4232252684219489,0.3899216999181192,0.3509637701864284,0.3095780258744449,0.26882308622739376,0.23174079391874555,0.20026805139956366,0.17528468586819004,0.15661922527326777,0.14310680701787268,0.1333521958103131,0.12563066571188222,0.11841343808626024,0.11064788506372673,0.10168877223905698,0.0919514127629354,0.08204332300672819,0.07273130011637244,0.06467654485418568,0.05795064459706163,0.05286259501479631,0.0490801338685786,0.046056273082331546,0.04321381600289045,0.03964456025383801,0.0357823139590582,0.03155106107399985,0.026905510245946656,0.021751087151595197,0.0152487256980006,0.008098015129089026,-0.00010446013386909605,-0.009693301223952807,-0.020649765091219813,-0.03297508500480718,-0.044779577046253426,-0.05460544953766624,-0.06104077405179963,-0.06305061733403482,-0.06072217497881108,-0.05383774389416823,-0.04331806595417143,-0.030541126491330065,-0.017029326793247857,-0.004550300385579221,0.006495345773309429,0.015699156457462202,0.023087227813873245,0.028991963747539106,0.03352348908546063,0.03761843839748556,0.041500567391003065,0.04518695404417848,0.04861028954703062,0.051505478540051504,0.054438116503172575,0.05781541431983644,0.06220193538365286,0.06822861534652212,0.07626995686573863,0.08689077006588436,0.10009023466645707,0.1154431854758676,0.13212708283932145,0.14863372891440887,0.1641518658115424,0.17768931175183522,0.18847904076682231,0.19602555033212077,0.1994944310094144,0.1995293775173542,0.19674681849498188,0.0,0.0,0.0,0.0,0.0,0.0,0.0,0.0,0.0,0.0,0.0,0.0,0.0,0.0,0.0,0.0,0.0,0.0,0.0,0.0,0.0,0.0,0.0,0.0,0.0,0.0,0.0,0.0,0.0,0.0,0.0,0.0,0.0,0.0,0.0,0.0,0.0,0.0,0.0,0.0,0.0,0.0,0.0,0.0,0.0,0.0,0.0,0.0,0.0,0.0,0.0,0.0,0.0,0.0,0.0,0.0,0.0,0.0,0.0,0.0,0.0,0.0,0.0,0.0,0.0,0.0,0.0,0.0,0.0,0.0,0.0,0.0,0.0,0.0,0.0,0.0,0.0,0.0,0.0,0.0,0.0,0.0,0.0,0.0,0.0,0.0,0.0,0.0,0.0,0.0,0.0,0.0,0.0,0.0,0.0,0.0,0.0,0.0,0.0,0.0,0.0,0.0,0.0,0.0,0.0,0.0,0.0,0.0,0.0,0.0,0.0,0.0,0.0,0.0,0.0,0.0,0.0,0.0,0.0,0.0,0.0,0.0,0.09336712446710638,-0.08499438156786238,-0.23030259302336664,-0.328762243559451,-0.37250584991082963,-0.36193134453550363,-0.3017188165190129,-0.20327622506787466,-0.0813880906994979,0.04839288727799702,0.17120127631087959,0.27801256766290183,0.36334167232411957,0.4262137007266093,0.46929162446682365,0.4966389251854917,0.5148807233842335,0.5291228019081294,0.5429610786783825,0.558217612010629,0.5742568158453293,0.5915854751328983,0.609606189540203,0.6280352632508348,0.6471435995544343,0.6666318601509517,0.688608033322531,0.714029211549911,0.7431623611029291,0.7752824236768425,0.8077353143856739,0.8391593190835412,0.8669549057068432,0.8888439711896423,0.9034212477992509,0.9097191152382723,0.9098224596466183,0.905609777633691,0.8992683235515018,0.892803782086516,0.8875653546093443,0.8846259454531236,0.8834338755049015,0.8829190208863487,0.8821863163737811,0.8816972842845776,0.8820154399056142,0.8836660905150702,0.8870782041400159,0.8922945384279819,0.8990210560297821,0.9058045494636443,0.9103814496730438,0.910084128916925,0.9024027604821828,0.8854955933278017,0.8585974575556766,0.822590479351901,0.7796378319990729,0.7328008796896004,0.6850011603406195,0.6404808677180489,0.6030881221192846,0.5763629443268918,0.5631989988970177,0.5642992981868471,0.5814356304760946,0.6138073043087999,0.6587175424674873,0.7115117070891379,0.7646537450770071,0.8121964662974217,0.8472818256286263,0.8642834881935042,0.8598244152812581,0.8322316959654247,0.7856542979998188,0.7258716738999126,0.660219202143175,0.5958859307860939,0.5366773550971462,0.48565527776698586,0.4400308957205794,0.39240728426405436,0.33194744629092976,0.2451830167305632,0.12363239139451485,-0.03767073634951417,-0.2364122340740518,-0.4619466189578049,-0.6976501645230673,-0.9181509165303277,-1.0981852046419895,-1.2156558788832525,-1.2558406842065395,-1.2161375795637792,-1.1010817238598842,-0.9264414526952178,-0.7144735786884094,-0.48968215890114375,-0.2764966890816227,-0.08918989613808602,0.06425276834436629,0.18395290774106524,0.2764763664042517,0.3497389592144107,0.41696263484137314,0.4874836004459663,0.5666504603696252,0.6550230518017097,0.7468641695663226,0.8373820403208058,0.9192858932850874,0.9861071753383238,1.0335697371991677,1.0588165813047656,1.0651355775437594,1.0571845586651687,1.0410818797338033,1.0230720257746113,1.006920741555825,0.9974161071486939,0.9959199899860287,1.0017220624782714,1.0125743143500552,1.0242190233183144,1.0352377761288782,1.0437094540218845,1.0488525164422564,1.0511276850284486,1.0510760307008018,1.0521500329057685,1.0572071593958399,1.0689861146237878,1.0896810557068417,1.119825475814842,1.160320386515893,1.2101217930264399,1.2668477823768196,1.3270123725693033,1.386168013306564,1.4406604156726224,1.4882899715530868,1.5288634051122667,1.564343689431765,1.5983951181211786,1.6350139814354498,1.6788434085572388,1.7327566471039881,1.796419121162484,1.865223112755053,1.931690738319671,1.9866680571768656,2.0211959604341265,2.0284945528932026,2.004740790402712,1.952180091751821,1.8766840752350484,1.787056038246596,1.693095327400112,1.6025951650488464,1.5227839010946258,1.4563722065187379,1.402524592475068,1.3576961019070213,1.315853204877893,1.2737429168538745,1.2281121780414144,1.1777314307193751,1.1235096004658982,1.0667512459687416,1.0123859800617847,0.9636488724734352,0.922539308362885,0.8893230990247751,0.8611474735392538,0.836986630035273,0.8139052500116751,0.0,0.0,0.0,0.0,0.0,0.0,0.0,0.0,0.0,0.0,0.0,0.0,0.0,0.0,0.0,0.0,0.0,0.0,0.0,0.0,0.0,0.0,0.0,0.0,0.0,0.0,0.0,0.0,0.0,0.0,0.0,0.0,0.0,0.0,0.0,0.0,0.0,0.0,0.0,0.0,0.0,0.0,0.0,0.0,0.0,0.0,0.0,0.0,0.0,0.0,0.0,0.0,0.0,0.0,0.0,0.0,0.0,0.0,0.0,0.0,0.0,0.0,0.0,0.0,0.0,0.0,0.0,0.0,0.0,0.0,0.0,0.0,0.0,0.0,0.0,0.0,0.0,0.0,0.0,0.0,0.0,0.0,0.0,0.0,0.0,0.0,0.0,0.0,0.0,0.0,0.0,0.0,0.0,0.0,0.0,0.0,0.0,0.0,0.0,0.0,0.0,0.0,0.0,0.0,0.0,0.0,0.0,0.0,0.0,0.0,0.0,0.0,0.0,0.0,0.0,0.0,0.0,0.0,0.0,0.0,0.0,0.0
0.845165222496681,0.8987293963263873,0.9199818255236115,0.9069897512292971,0.8624868093363919,0.7925161998158681,0.7056795199954164,0.6117589329654135,0.520160211207544,0.4391668375555339,0.37446373741109945,0.32907621654982017,0.3035360404072154,0.29629510659367625,0.30460746664505456,0.3246544655655403,0.35221516894404176,0.38303643344141863,0.41295245667160957,0.4385892287722936,0.45683032697757225,0.46528786140459427,0.4625368264756219,0.44809085257519593,0.4232252684219489,0.3899216999181192,0.3509637701864284,0.3095780258744449,0.26882308622739376,0.23174079391874555,0.20026805139956366,0.17528468586819004,0.15661922527326777,0.14310680701787268,0.1333521958103131,0.12563066571188222,0.11841343808626024,0.11064788506372673,0.10168877223905698,0.0919514127629354,0.08204332300672819,0.07273130011637244,0.06467654485418568,0.05795064459706163,0.05286259501479631,0.0490801338685786,0.046056273082331546,0.04321381600289045,0.03964456025383801,0.0357823139590582,0.03155106107399985,0.026905510245946656,0.021751087151595197,0.0152487256980006,0.008098015129089026,-0.00010446013386909605,-0.009693301223952807,-0.020649765091219813,-0.03297508500480718,-0.044779577046253426,-0.05460544953766624,-0.06104077405179963,-0.06305061733403482,-0.06072217497881108,-0.05383774389416823,-0.04331806595417143,-0.030541126491330065,-0.017029326793247857,-0.004550300385579221,0.006495345773309429,0.015699156457462202,0.023087227813873245,0.028991963747539106,0.03352348908546063,0.03761843839748556,0.041500567391003065,0.04518695404417848,0.04861028954703062,0.051505478540051504,0.054438116503172575,0.05781541431983644,0.06220193538365286,0.06822861534652212,0.07626995686573863,0.08689077006588436,0.10009023466645707,0.1154431854758676,0.13212708283932145,0.14863372891440887,0.1641518658115424,0.17768931175183522,0.18847904076682231,0.19602555033212077,0.1994944310094144,0.1995293775173542,0.19674681849498188,0.19201959804705718,0.1863433764854328,0.18038167240532002,0.17541149045972781,0.17247873882363193,0.172589607602883,0.17666120263874485,0.185369365311675,0.19921048678837966,0.2181637555143597,0.24157810016967787,0.2680660765619647,0.295393922550395,0.32096666632258575,0.3418968186708955,0.3554498179079999,0.3594709504851845,0.352605203055357,0.335032675622918,0.30825345003474974,0.2749590767166606,0.23861930720286942,0.20277826658811382,0.1708818225088735,0.14545052224942276,0.12777600128890107,0.11776766392055431,0.11393563588240364,0.11412064560980105,0.11571369563562009,0.11636336462162603,0.11456654072347375,0.10994962073186498,0.10401748579118993,0.09961552286141942,0.1006445666919683,0.11136541752639322,0.1353106985663165,0.1750802385904362,0.23100927705927063,0.3008883705337955,0.37992665470904585,0.4608380543650198,0.5357560600409731,0.5964184898860954,0.6356583651259171,0.6484878918916985,0.6324075989227045,0.5891793384018539,0.5233333419006477,0.4418819053642049,0.353285343736016,0.2658468118781946,0.1877938503696375,0.12517677391561963,0.08160946777316427,0.05808279558033349,0.052847651173465605,0.06300806919586067,0.08424687643405439,0.11187548554943336,0.1414848484910142,0.16900490923892855,0.19224841969966855,0.20965110750126204,0.22053347824671987,0.2248869014016949,0.22268259511375757,0.21526335190690302,0.20368121060675676,0.18916577137545967,0.1731214836680765,0.1566852456305823,0.14192187207020965,0.13039685531675702,0.12332595985276862,0.12135606593445812,0.12408493557118484,0.13109483898049654,0.1411666262043278,0.15279459443629284,0.1645049488590237,0.0,0.0,0.0,0.0,0.0,0.0,0.0,0.0,0.0,0.0,0.0,0.0,0.0,0.0,0.0,0.0,0.0,0.0,0.0,0.0,0.0,0.0,0.0,0.0,0.0,0.0,0.0,0.0,0.0,0.0,0.0,0.0,0.0,0.0,0.0,0.0,0.0,0.0,0.0,0.0,0.0,0.0,0.0,0.0,0.0,0.0,0.0,0.0,0.0,0.0,0.0,0.0,0.0,0.0,0.0,0.0,0.0,0.0,0.0,0.0,0.0,0.0,0.0,0.0,0.0,0.0,0.0,0.0,0.0,0.0,0.0,0.0,0.0,0.0,0.0,0.0,0.0,0.0,0.0,0.0,0.0,0.0,0.0,0.0,0.0,0.0,0.0,0.0,0.0,0.0,0.0,0.0,0.0,0.0,0.0,0.0,0.0,0.0,0.0,0.0,0.0,0.0,0.0,0.0,0.0,0.0,0.0,0.0,0.0,0.0,0.0,0.0,0.0,0.0,0.0,0.0,0.0,0.0,0.0,0.0,0.0,0.0,0.4400308957205794,0.39240728426405436,0.33194744629092976,0.2451830167305632,0.12363239139451485,-0.03767073634951417,-0.2364122340740518,-0.4619466189578049,-0.6976501645230673,-0.9181509165303277,-1.0981852046419895,-1.2156558788832525,-1.2558406842065395,-1.2161375795637792,-1.1010817238598842,-0.9264414526952178,-0.7144735786884094,-0.48968215890114375,-0.2764966890816227,-0.08918989613808602,0.06425276834436629,0.18395290774106524,0.2764763664042517,0.3497389592144107,0.41696263484137314,0.4874836004459663,0.5666504603696252,0.6550230518017097,0.7468641695663226,0.8373820403208058,0.9192858932850874,0.9861071753383238,1.0335697371991677,1.0588165813047656,1.0651355775437594,1.0571845586651687,1.0410818797338033,1.0230720257746113,1.006920741555825,0.9974161071486939,0.9959199899860287,1.0017220624782714,1.0125743143500552,1.0242190233183144,1.0352377761288782,1.0437094540218845,1.0488525164422564,1.0511276850284486,1.0510760307008018,1.0521500329057685,1.0572071593958399,1.0689861146237878,1.0896810557068417,1.119825475814842,1.160320386515893,1.2101217930264399,1.2668477823768196,1.3270123725693033,1.386168013306564,1.4406604156726224,1.4882899715530868,1.5288634051122667,1.564343689431765,1.5983951181211786,1.6350139814354498,1.6788434085572388,1.7327566471039881,1.796419121162484,1.865223112755053,1.931690738319671,1.9866680571768656,2.0211959604341265,2.0284945528932026,2.004740790402712,1.952180091751821,1.8766840752350484,1.787056038246596,1.693095327400112,1.6025951650488464,1.5227839010946258,1.4563722065187379,1.402524592475068,1.3576961019070213,1.315853204877893,1.2737429168538745,1.2281121780414144,1.1777314307193751,1.1235096004658982,1.0667512459687416,1.0123859800617847,0.9636488724734352,0.922539308362885,0.8893230990247751,0.8611474735392538,0.836986630035273,0.8139052500116751,0.7893669427411838,0.7620081334373102,0.7310137363845617,0.6996485140333205,0.6709584942507871,0.6483253429189317,0.6346931678498452,0.6311427771462146,0.6390529755620945,0.6568200868333877,0.6813205264703066,0.7086276809938283,0.7337741716726716,0.7551797467867686,0.7708228174646486,0.7798620952236959,0.7825621941378116,0.7785836069430606,0.7713636670457003,0.7623519747196105,0.7525963189858614,0.7427727936814501,0.7318000657734327,0.7221998591162361,0.7142119894456097,0.7078524474263266,0.7029833932250884,0.6976933306956579,0.6939322507875774,0.6909931201335361,0.6879231686760041,0.6839121873393355,0.6772495495532634,0.670478950771331,0.6648743244322376,0.6622592212196562,0.6648409814535824,0.6736491781424134,0.6921854295471409,0.7212226585424215,0.7599170647325605,0.8056115594992598,0.8526660975357342,0.896830108461703,0.9315015592377816,0.9499604715492992,0.946382137544937,0.9156255001493031,0.8580306073154756,0.7759031265730509,0.6747740455694329,0.5629071444622773,0.4491775729858223,0.34546699560259,0.26154657752146143,0.2048439318380695,0.17943215137961743,0.18446276620154375,0.21774113741945778,0.27309005852884966,0.3424424420484226,0.4171203712635528,0.48797158765701226,0.5499083367226663,0.5990248670049608,0.6337969054685967,0.6548085911474881,0.6630659966798335,0.6629442453781453,0.6578740126387984,0.65090298556909,0.6443217478888539,0.6384640330832996,0.6349993467188043,0.6337123482734115,0.6337410157518526,0.6338349046302197,0.6317227328503325,0.6273550598913801,0.6201091148295453,0.6099324443492627,0.5974613232501997,0.0,0.0,0.0,0.0,0.0,0.0,0.0,0.0,0.0,0.0,0.0,0.0,0.0,0.0,0.0,0.0,0.0,0.0,0.0,0.0,0.0,0.0,0.0,0.0,0.0,0.0,0.0,0.0,0.0,0.0,0.0,0.0,0.0,0.0,0.0,0.0,0.0,0.0,0.0,0.0,0.0,0.0,0.0,0.0,0.0,0.0,0.0,0.0,0.0,0.0,0.0,0.0,0.0,0.0,0.0,0.0,0.0,0.0,0.0,0.0,0.0,0.0,0.0,0.0,0.0,0.0,0.0,0.0,0.0,0.0,0.0,0.0,0.0,0.0,0.0,0.0,0.0,0.0,0.0,0.0,0.0,0.0,0.0,0.0,0.0,0.0,0.0,0.0,0.0,0.0,0.0,0.0,0.0,0.0,0.0,0.0,0.0,0.0,0.0,0.0,0.0,0.0,0.0,0.0,0.0,0.0,0.0,0.0,0.0,0.0,0.0,0.0,0.0,0.0,0.0,0.0,0.0,0.0,0.0,0.0,0.0,0.0
0.6356583651259171,0.6484878918916985,0.6324075989227045,0.5891793384018539,0.5233333419006477,0.4418819053642049,0.353285343736016,0.2658468118781946,0.1877938503696375,0.12517677391561963,0.08160946777316427,0.05808279558033349,0.052847651173465605,0.06300806919586067,0.08424687643405439,0.11187548554943336,0.1414848484910142,0.16900490923892855,0.19224841969966855,0.20965110750126204,0.22053347824671987,0.2248869014016949,0.22268259511375757,0.21526335190690302,0.20368121060675676,0.18916577137545967,0.1731214836680765,0.1566852456305823,0.14192187207020965,0.13039685531675702,0.12332595985276862,0.12135606593445812,0.12408493557118484,0.13109483898049654,0.1411666262043278,0.15279459443629284,0.1645049488590237,0.1748554174497752,0.1836851251748287,0.1913402861845769,0.19884701319546583,0.20765383178358923,0.21895077289162962,0.23421767744723998,0.25402803570974447,0.27805991195620233,0.3050379081209794,0.33249263451227307,0.3583602994369481,0.3800174260285463,0.395201990987636,0.4024219844583695,0.400755872897813,0.39152125673053345,0.3761935155708705,0.35682432781959145,0.3357454657777752,0.31497044364065113,0.2968660786319896,0.28281750478620543,0.27352770106338203,0.2690689470971809,0.2689129099152094,0.272403607948791,0.2786002931359582,0.2864832443360262,0.29503685510104954,0.3030866379364973,0.3101081118603345,0.3155704617291029,0.3192020359375406,0.3210047631049182,0.3208614320183079,0.3196307256113796,0.31789658219519407,0.3161786349119977,0.31481095030889683,0.3133514076742991,0.31218168818421826,0.31115129524491375,0.31004016845628013,0.30861713751287545,0.30602123782250407,0.30283888871236914,0.2994172412114412,0.2962085949266464,0.29358375781868706,0.29139830448796467,0.2896240692547783,0.28756769684409783,0.2842307018119389,0.27855037812449873,0.26988525624803555,0.25776457499950467,0.24220579440856813,0.223815966860154,0.20376080865874865,0.18355308270963525,0.16501557038657869,0.14941788327239847,0.13742532824896894,0.12897123919299855,0.12301071492782342,0.11872510126464372,0.11465070879740284,0.10951556237686293,0.10265154809105186,0.09390591700916509,0.08490372021830023,0.07755288953292257,0.07404597027788161,0.07633185698910515,0.0851534035939102,0.10109538194691513,0.1230902184976253,0.14901898741397931,0.1761800121058187,0.20154185596882232,0.22378061646664058,0.24251697440882303,0.2590091142645702,0.27602816722253226,0.2969304214586901,0.32599544708251593,0.36604627494303016,0.41783500205298435,0.4793124945796296,0.5450352656745356,0.6076866857893672,0.6577987064118757,0.6855804692903554,0.682596821936727,0.6430535598605295,0.5661158591504561,0.4553352177083415,0.31885086928974427,0.1684396745975556,0.017591719402314732,-0.11935614635711782,-0.23038336036175208,-0.3070851341078442,-0.34571747274161574,-0.3477887001525305,-0.31838303213591873,-0.26607771374515493,-0.20091382451768525,-0.13263538899813457,-0.0696145771600678,-0.016431719660318016,0.02518518286491673,0.05640939738642771,0.08044669474534662,0.10082292713358983,0.12191259332365377,0.14657319044424344,0.17595621795689798,0.20935828166011786,0.24405743801466317,0.2772466168170767,0.3056540692182116,0.32655252526466844,0.33826986857488917,0.3401185471231622,0.3333521229406128,0.32006647117234616,0.30296942448739284,0.2848409303683711,0.26771985769607715,0.2535417413347993,0.2430153851346794,0.23594032467432596,0.23141199216185301,0.22783807802989958,0.22432062434113717,0.2199018170863282,0.21413558229997864,0.2071724921150811,0.19929973209862656,0.0,0.0,0.0,0.0,0.0,0.0,0.0,0.0,0.0,0.0,0.0,0.0,0.0,0.0,0.0,0.0,0.0,0.0,0.0,0.0,0.0,0.0,0.0,0.0,0.0,0.0,0.0,0.0,0.0,0.0,0.0,0.0,0.0,0.0,0.0,0.0,0.0,0.0,0.0,0.0,0.0,0.0,0.0,0.0,0.0,0.0,0.0,0.0,0.0,0.0,0.0,0.0,0.0,0.0,0.0,0.0,0.0,0.0,0.0,0.0,0.0,0.0,0.0,0.0,0.0,0.0,0.0,0.0,0.0,0.0,0.0,0.0,0.0,0.0,0.0,0.0,0.0,0.0,0.0,0.0,0.0,0.0,0.0,0.0,0.0,0.0,0.0,0.0,0.0,0.0,0.0,0.0,0.0,0.0,0.0,0.0,0.0,0.0,0.0,0.0,0.0,0.0,0.0,0.0,0.0,0.0,0.0,0.0,0.0,0.0,0.0,0.0,0.0,0.0,0.0,0.0,0.0,0.0,0.0,0.0,0.0,0.0,0.9499604715492992,0.946382137544937,0.9156255001493031,0.8580306073154756,0.7759031265730509,0.6747740455694329,0.5629071444622773,0.4491775729858223,0.34546699560259,0.26154657752146143,0.2048439318380695,0.17943215137961743,0.18446276620154375,0.21774113741945778,0.27309005852884966,0.3424424420484226,0.4171203712635528,0.48797158765701226,0.5499083367226663,0.5990248670049608,0.6337969054685967,0.6548085911474881,0.6630659966798335,0.6629442453781453,0.6578740126387984,0.65090298556909,0.6443217478888539,0.6384640330832996,0.6349993467188043,0.6337123482734115,0.6337410157518526,0.6338349046302197,0.6317227328503325,0.6273550598913801,0.6201091148295453,0.6099324443492627,0.5974613232501997,0.5830725588928918,0.5698603437022428,0.5602681112730599,0.5566940522650756,0.5610877418701797,0.5735700153515527,0.5953839991361471,0.6255867558626291,0.6620952606864764,0.7019475750034289,0.7407441881814723,0.7763771469486312,0.806202649660757,0.8285177158635918,0.842807408136678,0.8487909153699679,0.8493806249102436,0.8467614782592837,0.8430411420539862,0.8398435837081769,0.837297583257656,0.8363899242449585,0.8366287013277985,0.8371078159253084,0.8368797592796756,0.8347524663642815,0.8311225105333476,0.8265153533267375,0.8217681981341547,0.8176700153296388,0.8138936996177046,0.8110351610314551,0.8083758637060146,0.8046776383977247,0.798460271379602,0.7874616577073897,0.7718791639610944,0.7516825222899666,0.727622036406652,0.7011692684369882,0.6733071052473986,0.6474860095550764,0.6261040824733833,0.6111408059075207,0.6038782654943746,0.6035941729429743,0.6111042103383953,0.6253824832983204,0.644708673516021,0.6668295746063168,0.6886127503581948,0.7081091200685758,0.7227694381002363,0.7304550353728134,0.7297808837182589,0.7204153029861048,0.703237252337588,0.679572904954158,0.6513666989444117,0.6209821709008876,0.5905525477800949,0.5631101922410181,0.5404144408126043,0.5234129255213507,0.5121834580835163,0.5051740032282345,0.5021855958927982,0.5015980969956262,0.5017363108955564,0.501263277863644,0.4985431639824406,0.4949319956442592,0.4914044717589068,0.4893768246952446,0.4903430976437719,0.49438913854096295,0.5033085158038404,0.5168059509372481,0.5336368338033513,0.5518846892765118,0.5683832881598013,0.5827527165778237,0.5943994356787062,0.6039739789269095,0.6134262809092518,0.6246423013641415,0.6422084321740721,0.6690037517069868,0.7062957074457362,0.7528863422110507,0.8036088910334969,0.8525609670823496,0.8904988014155376,0.9070441866498047,0.8923464035128496,0.8379959286721328,0.7417493793970673,0.6057741586386185,0.43795009639170296,0.25129602149336666,0.06144744932466285,-0.11240224554736683,-0.25332160377270485,-0.3482092399112595,-0.38975436052611623,-0.37848285787983343,-0.3191844815352997,-0.2230271185986401,-0.10439236894726744,0.021641539870465642,0.1405928948926365,0.2439674392159735,0.32683386788357566,0.38878911399670635,0.4330374402670475,0.46373531889408076,0.4880441955733066,0.5113182994811779,0.5370661277064641,0.5665006088243599,0.5976451623474739,0.6291917735637315,0.6583325645496372,0.6824923714235177,0.6999637773816724,0.7093465765063676,0.7123508469457567,0.7108175102889489,0.7070206706300424,0.7031095438491528,0.6997872143170571,0.6987716063599293,0.7000630060780021,0.7029360845659677,0.7062553103166331,0.7080237088179511,0.7083643881212563,0.7070144114479988,0.7042105820394043,0.700592535404523,0.6961794407239261,0.0,0.0,0.0,0.0,0.0,0.0,0.0,0.0,0.0,0.0,0.0,0.0,0.0,0.0,0.0,0.0,0.0,0.0,0.0,0.0,0.0,0.0,0.0,0.0,0.0,0.0,0.0,0.0,0.0,0.0,0.0,0.0,0.0,0.0,0.0,0.0,0.0,0.0,0.0,0.0,0.0,0.0,0.0,0.0,0.0,0.0,0.0,0.0,0.0,0.0,0.0,0.0,0.0,0.0,0.0,0.0,0.0,0.0,0.0,0.0,0.0,0.0,0.0,0.0,0.0,0.0,0.0,0.0,0.0,0.0,0.0,0.0,0.0,0.0,0.0,0.0,0.0,0.0,0.0,0.0,0.0,0.0,0.0,0.0,0.0,0.0,0.0,0.0,0.0,0.0,0.0,0.0,0.0,0.0,0.0,0.0,0.0,0.0,0.0,0.0,0.0,0.0,0.0,0.0,0.0,0.0,0.0,0.0,0.0,0.0,0.0,0.0,0.0,0.0,0.0,0.0,0.0,0.0,0.0,0.0,0.0,0.0
0.5450352656745356,0.6076866857893672,0.6577987064118757,0.6855804692903554,0.682596821936727,0.6430535598605295,0.5661158591504561,0.4553352177083415,0.31885086928974427,0.1684396745975556,0.017591719402314732,-0.11935614635711782,-0.23038336036175208,-0.3070851341078442,-0.34571747274161574,-0.3477887001525305,-0.31838303213591873,-0.26607771374515493,-0.20091382451768525,-0.13263538899813457,-0.0696145771600678,-0.016431719660318016,0.02518518286491673,0.05640939738642771,0.08044669474534662,0.10082292713358983,0.12191259332365377,0.14657319044424344,0.17595621795689798,0.20935828166011786,0.24405743801466317,0.2772466168170767,0.3056540692182116,0.32655252526466844,0.33826986857488917,0.3401185471231622,0.3333521229406128,0.32006647117234616,0.30296942448739284,0.2848409303683711,0.26771985769607715,0.2535417413347993,0.2430153851346794,0.23594032467432596,0.23141199216185301,0.22783807802989958,0.22432062434113717,0.2199018170863282,0.21413558229997864,0.2071724921150811,0.19929973209862656,0.1920833064735689,0.1865386099040571,0.18339647825722305,0.18293299206830918,0.18443449789360633,0.18792649379052206,0.1923258930487647,0.1964526570572994,0.19942067934178578,0.20070139271406542,0.2012085468370767,0.20244387963815227,0.20654784132561987,0.2159083666152623,0.23257082551409378,0.2578032560516466,0.29194921987104955,0.3339224676903227,0.3811005585258727,0.4293585649543345,0.4740864888433406,0.5107215854513589,0.5355414577745063,0.5462927504364831,0.5422718510603933,0.5252166371077875,0.49822810223125785,0.46535414530653735,0.4308079530129484,0.39786709702553946,0.3694005912403435,0.34652051313718735,0.3289454768566047,0.3153231555894137,0.30333544684402075,0.2915904556540977,0.27871979189174767,0.26412097989676825,0.24802953686836365,0.23102012724708254,0.214783718936155,0.20056274764022236,0.18916222910179356,0.18073591814731366,0.17448971278332906,0.16973683829509342,0.1652668272321295,0.16001297200829712,0.1533944018562623,0.14527532322208128,0.13686388433607974,0.12967881242545065,0.1255160183185843,0.12605288556521094,0.1322024797526858,0.1446359353630409,0.1628174487470773,0.1853156047693476,0.21003900060483646,0.23429030939092618,0.25616640552961173,0.2739467904762021,0.2866324297112729,0.29402511564446193,0.2962819730416839,0.29487044108775284,0.2911683831577011,0.28651509645447426,0.2819746495962008,0.2777506136211957,0.27463220437955793,0.27252656489084554,0.27109451928893297,0.26992418354793957,0.26815152387049196,0.26633135963696947,0.2644925347519788,0.2627462311936748,0.26122432036364585,0.25957032818032544,0.2582661589076113,0.25702555231027713,0.2553268458410017,0.2525244571793521,0.2476963472978572,0.24085882918830767,0.23195155960476288,0.22128457323201695,0.20953361223063635,0.19734946007554485,0.1861541987419047,0.1769225342359379,0.17031259748415295,0.16654276728192055,0.16508542408878116,0.16562514563972416,0.16733992318666488,0.1693730785331466,0.17104131014898044,0.17168875708822226,0.17175164260058462,0.17181958785671814,0.17276831105178278,0.17553985301604033,0.1805501194350596,0.1885507603211479,0.1995375806114373,0.2129784482827823,0.22787142043520436,0.24254933053939917,0.256040158849809,0.26722141715048986,0.27535454247042246,0.2802029878543684,0.28167961148803733,0.28093645611981466,0.27895180266044506,0.2766935888483686,0.27490427492802016,0.27361462992364266,0.2731217535678966,0.2728933349243426,0.27205516070642716,0.26960556200167196,0.26438275746480083,0.2562186648230985,0.24508522161636584,0.0,0.0,0.0,0.0,0.0,0.0,0.0,0.0,0.0,0.0,0.0,0.0,0.0,0.0,0.0,0.0,0.0,0.0,0.0,0.0,0.0,0.0,0.0,0.0,0.0,0.0,0.0,0.0,0.0,0.0,0.0,0.0,0.0,0.0,0.0,0.0,0.0,0.0,0.0,0.0,0.0,0.0,0.0,0.0,0.0,0.0,0.0,0.0,0.0,0.0,0.0,0.0,0.0,0.0,0.0,0.0,0.0,0.0,0.0,0.0,0.0,0.0,0.0,0.0,0.0,0.0,0.0,0.0,0.0,0.0,0.0,0.0,0.0,0.0,0.0,0.0,0.0,0.0,0.0,0.0,0.0,0.0,0.0,0.0,0.0,0.0,0.0,0.0,0.0,0.0,0.0,0.0,0.0,0.0,0.0,0.0,0.0,0.0,0.0,0.0,0.0,0.0,0.0,0.0,0.0,0.0,0.0,0.0,0.0,0.0,0.0,0.0,0.0,0.0,0.0,0.0,0.0,0.0,0.0,0.0,0.0,0.0,0.8036088910334969,0.8525609670823496,0.8904988014155376,0.9070441866498047,0.8923464035128496,0.8379959286721328,0.7417493793970673,0.6057741586386185,0.43795009639170296,0.25129602149336666,0.06144744932466285,-0.11240224554736683,-0.25332160377270485,-0.3482092399112595,-0.38975436052611623,-0.37848285787983343,-0.3191844815352997,-0.2230271185986401,-0.10439236894726744,0.021641539870465642,0.1405928948926365,0.2439674392159735,0.32683386788357566,0.38878911399670635,0.4330374402670475,0.46373531889408076,0.4880441955733066,0.5113182994811779,0.5370661277064641,0.5665006088243599,0.5976451623474739,0.6291917735637315,0.6583325645496372,0.6824923714235177,0.6999637773816724,0.7093465765063676,0.7123508469457567,0.7108175102889489,0.7070206706300424,0.7031095438491528,0.6997872143170571,0.6987716063599293,0.7000630060780021,0.7029360845659677,0.7062553103166331,0.7080237088179511,0.7083643881212563,0.7070144114479988,0.7042105820394043,0.700592535404523,0.6961794407239261,0.6928928761821409,0.691436420407042,0.6921330182057398,0.6949297604924127,0.6986280187280113,0.7038205977994092,0.7098518510925138,0.7159983098423123,0.7216566691263886,0.7259437316070636,0.7296446924251403,0.7336340624508487,0.7393056629331558,0.7483835777603646,0.7622832432748263,0.7824638209859047,0.8098073783482824,0.8440604527833832,0.8834740408342486,0.9241735188709997,0.9622753172808631,0.993219776893926,1.0129309936216457,1.0185645039081328,1.0081720365331919,0.9836417141004741,0.9479362069349531,0.905272556505822,0.8603001792780534,0.8163283119944473,0.777524989308691,0.745658569656551,0.7208902450435507,0.7020358546479741,0.686125450640421,0.6720927201153887,0.6582181913748302,0.6434783581863556,0.627674548848137,0.6104359499353933,0.5937136937628438,0.578429157474715,0.5650334730315837,0.5533132430483,0.5416361491468028,0.5297660988521203,0.5165044174839012,0.5010191175121305,0.48323505943533995,0.46325642911388965,0.4438771355523644,0.4275239049833103,0.4166409748051749,0.41315687582237987,0.4172536883780053,0.4296729479859926,0.4489974170598332,0.47281836024421336,0.4982599479127255,0.5216814086572519,0.5422062994850951,0.5590053769090949,0.5723388234541282,0.583363020003071,0.5926741414310941,0.6031877469779355,0.6162391655003289,0.6322887820945501,0.6507938952298661,0.6692346493884856,0.6869927107425537,0.7020979044621346,0.7128537731288693,0.7182247704566613,0.716925140909007,0.7111483731281398,0.7023862369284791,0.69235938371531,0.6826357192466938,0.6733018134499292,0.6659057639811572,0.6599807339084245,0.6542648178586806,0.6470466680367263,0.6358127537716666,0.6203748411670394,0.600409969749414,0.5765278797560522,0.5502294218794804,0.5228700730741616,0.4977629627302073,0.47706249564216363,0.4621581802335761,0.4534121757222344,0.4493854904080026,0.44942851266530426,0.4516334507399366,0.4540871397505448,0.4553652610274862,0.4540913286896108,0.4517184465705827,0.44991814954534043,0.45098848692755406,0.457318346332738,0.4698945397907704,0.4906202811299002,0.5193817379372715,0.5547098937551673,0.5939333318129012,0.6326755946427852,0.6682735729125707,0.6976672598128429,0.7187242018059752,0.7305483172930645,0.7326442677470764,0.7276052995677657,0.7178812886252239,0.7061196141461193,0.6946250340904524,0.6840487312598644,0.6759622636648696,0.6699650351842632,0.6647908232735064,0.6587017508878403,0.6491235209090715,0.6358764787518327,0.6185958177699372,0.0,0.0,0.0,0.0,0.0,0.0,0.0,0.0,0.0,0.0,0.0,0.0,0.0,0.0,0.0,0.0,0.0,0.0,0.0,0.0,0.0,0.0,0.0,0.0,0.0,0.0,0.0,0.0,0.0,0.0,0.0,0.0,0.0,0.0,0.0,0.0,0.0,0.0,0.0,0.0,0.0,0.0,0.0,0.0,0.0,0.0,0.0,0.0,0.0,0.0,0.0,0.0,0.0,0.0,0.0,0.0,0.0,0.0,0.0,0.0,0.0,0.0,0.0,0.0,0.0,0.0,0.0,0.0,0.0,0.0,0.0,0.0,0.0,0.0,0.0,0.0,0.0,0.0,0.0,0.0,0.0,0.0,0.0,0.0,0.0,0.0,0.0,0.0,0.0,0.0,0.0,0.0,0.0,0.0,0.0,0.0,0.0,0.0,0.0,0.0,0.0,0.0,0.0,0.0,0.0,0.0,0.0,0.0,0.0,0.0,0.0,0.0,0.0,0.0,0.0,0.0,0.0,0.0,0.0,0.0,0.0,0.0
0.39287119883656135,0.38385968687529654,0.3713866210236478,0.3587289240621447,0.3484950610553604,0.3414422184078644,0.33706934267244826,0.3323379134072796,0.32242732181811173,0.3016176473085512,0.2641513544790687,0.2067669901222192,0.12859515939363428,0.0322755605671327,-0.0759657664866825,-0.1873195731278041,-0.29050996110319705,-0.3746974425320738,-0.4309063284801407,-0.45354918028191615,-0.441717331368259,-0.3981886793296382,-0.32989108059261024,-0.24623064968939268,-0.15738057278253328,-0.07305805204917669,0.0004957262284806662,0.059899478855012615,0.1051083668856717,0.1387880347168496,0.16453469852936373,0.18765507676250898,0.21224131558059886,0.24074844397938158,0.27354270625946553,0.3083791127127107,0.34269989109533217,0.3728910963315495,0.3955677444748314,0.4082973778020814,0.409582798960724,0.40051692474499967,0.38324913569509156,0.3608967036578966,0.33689842094979805,0.31392524982050535,0.294725541998768,0.28045227460838507,0.27105361733363836,0.2654994640975147,0.2618198696976862,0.2588341266874667,0.2551998549253098,0.2501846846723161,0.2438007055463973,0.23639612606472094,0.2295274589391875,0.22437014133828345,0.22178872184783127,0.22210194699527988,0.2246967595581287,0.22910059246869055,0.23411444196199335,0.23851320049792454,0.24144029273235493,0.24260671231661698,0.24291099174112826,0.24422912571827843,0.2492058484252665,0.26077863846943,0.28155385078886724,0.3129636936794672,0.35535083623673774,0.4072878953370127,0.4654762350558951,0.5248918993376982,0.5798826221908465,0.6249881465244689,0.6558916699572552,0.6701738316423601,0.6673881811457839,0.6499937917675487,0.621943517539397,0.588099627752494,0.5532350950782781,0.5207230192459047,0.49318097024884955,0.47097326819831414,0.45280826258706625,0.4362963585141959,0.4182359476113091,0.39694272635807865,0.3712103536111838,0.3411422884700074,0.3081226266944079,0.27404768642287597,0.24213943061024149,0.21489254376601358,0.1939828262333805,0.17994889487461976,0.17178440840416154,0.16836594140016692,0.1676835268238225,0.16773276880636467,0.16699320806364798,0.16456796172542132,0.16092191650282708,0.1570035449406493,0.15421429162230768,0.15403752125267625,0.15766237432345373,0.16575941569905633,0.17802084597655848,0.1933601051584142,0.2101664530061481,0.22642661913695553,0.24091170240177723,0.2525756380405076,0.26098429407769136,0.26629538475961995,0.2686134500189721,0.26930605159855264,0.2692940277147176,0.26928592564337456,0.2696627653995798,0.2699531986195889,0.2706448613814965,0.2715046474998252,0.27232156057354934,0.2730301460395396,0.2732032923314043,0.2738978055100187,0.27535889102377836,0.27765220133311347,0.28061947518369185,0.28338702035758073,0.2861063817927648,0.28816617371999426,0.28898571945426765,0.2882088043278442,0.28540853025252544,0.2816066423768535,0.2775776214593281,0.2741668992165778,0.2720107902244865,0.27083702746483423,0.270486442995708,0.2694798221143368,0.2655190472185371,0.25581277612112885,0.23726263240631226,0.20818631759050998,0.1679251531885672,0.11760888397013988,0.060329243306383326,0.0005733215629113476,-0.05511898254070392,-0.10009168144437124,-0.12826784976046482,-0.13515428950836222,-0.11906305139658718,-0.08021745770887176,-0.02190815938227704,0.05028123668352613,0.12925406119315577,0.20689451543813572,0.2766441266184804,0.3329772172975424,0.3723974970935051,0.39366241189467366,0.3970959217601076,0.3859642501712436,0.36424285377253035,0.3364170756212888,0.3068168402492491,0.27855252173354683,0.254784764588971,0.23702636547737405,0.0,0.0,0.0,0.0,0.0,0.0,0.0,0.0,0.0,0.0,0.0,0.0,0.0,0.0,0.0,0.0,0.0,0.0,0.0,0.0,0.0,0.0,0.0,0.0,0.0,0.0,0.0,0.0,0.0,0.0,0.0,0.0,0.0,0.0,0.0,0.0,0.0,0.0,0.0,0.0,0.0,0.0,0.0,0.0,0.0,0.0,0.0,0.0,0.0,0.0,0.0,0.0,0.0,0.0,0.0,0.0,0.0,0.0,0.0,0.0,0.0,0.0,0.0,0.0,0.0,0.0,0.0,0.0,0.0,0.0,0.0,0.0,0.0,0.0,0.0,0.0,0.0,0.0,0.0,0.0,0.0,0.0,0.0,0.0,0.0,0.0,0.0,0.0,0.0,0.0,0.0,0.0,0.0,0.0,0.0,0.0,0.0,0.0,0.0,0.0,0.0,0.0,0.0,0.0,0.0,0.0,0.0,0.0,0.0,0.0,0.0,0.0,0.0,0.0,0.0,0.0,0.0,0.0,0.0,0.0,0.0,0.0,0.7952434954145632,0.7861449986616823,0.7752493512557556,0.7674775020353256,0.7660793382289744,0.7703033170610344,0.7777550232418822,0.7812599281722151,0.7706900157419577,0.7346857658517888,0.6619259142204824,0.5469895548124557,0.3890557046052309,0.19423131084939285,-0.024409666085328276,-0.2491507122584923,-0.45697310144211944,-0.6261400282842245,-0.738709224514079,-0.7835050980224454,-0.7588846035751217,-0.6699907698689063,-0.5305181340811251,-0.3592007697008785,-0.1764913536190691,-0.0022258146484488814,0.15046410871944516,0.2736205307201568,0.36568898273777894,0.4305223907843071,0.4743362153046308,0.5070206253563906,0.5366863751981086,0.5690117059817545,0.6064160607086219,0.6469689705273028,0.6887116558389169,0.7276040861885301,0.7597310964052133,0.7823097306329366,0.7931512167822302,0.7942514741247314,0.7882095203912385,0.7784346725384106,0.768275983740764,0.7591865854385293,0.7536553187369096,0.7517888166528863,0.7525499414656036,0.7542422368485914,0.7540772380144788,0.7520141890386273,0.7476684372250084,0.7414387951456666,0.7343189181967174,0.7266000236330109,0.7204986000023682,0.7166361370890282,0.7148773577975099,0.7143955995448433,0.713080119989672,0.7106735274414275,0.7062059823653881,0.6992378024233293,0.6900590879608881,0.6792814603719316,0.6690259155817206,0.6617040740769009,0.6598621697396836,0.665722576376933,0.680691097662202,0.7048334511120697,0.7376522872105375,0.7774719364451153,0.8214406785317239,0.8653327444382892,0.9054707287797066,0.9386048908510337,0.962678357347397,0.9771587806865147,0.982123258709874,0.9808088720384093,0.9763302930700006,0.9716806309658771,0.9689722115148425,0.9678452606367628,0.9686789317954838,0.9695756309730286,0.9678620086350872,0.96078564234317,0.9450145259382892,0.9210499026237454,0.8896626169945235,0.8529395532378181,0.8138412606445772,0.7743747367222644,0.738674960976603,0.7087006927348711,0.6850391675156566,0.6668968789459845,0.6512655515780992,0.6371602786334019,0.6226174516715701,0.6063589766253652,0.5881181824049881,0.5683821361307773,0.5492233088543828,0.5322124935389708,0.5186515914545995,0.5093394858639919,0.5050658227523472,0.5051461349607784,0.507928786542427,0.5113765997248906,0.5137222470037619,0.5139012397418745,0.5127298605238001,0.5115583738832832,0.5125365241734305,0.5181050081435319,0.5293913486125195,0.54867246992656,0.5758545291935956,0.6093099777710254,0.6461413587766286,0.6816663637188518,0.7138274730112367,0.740303367387113,0.7601926306750821,0.7741777094097253,0.7829779099610537,0.7908510462159929,0.8005047038543653,0.8136128586203646,0.8302885675797843,0.8477700907899642,0.8648170582340142,0.8783908959373536,0.885952716052651,0.8863994257498434,0.8794517615432478,0.8694713244423657,0.8607527040398031,0.8575009451453228,0.8622465933273241,0.8732288478065878,0.8869257493919533,0.8942713936886677,0.8826915903671724,0.838093760904805,0.74663455185661,0.6010664787643968,0.4002227516677413,0.15169809201633283,-0.12796660320055675,-0.41591482152949416,-0.6826124907430391,-0.8993422476389566,-1.0417814252421023,-1.0940269673059184,-1.0524352177928584,-0.922705838607833,-0.7219513462272829,-0.47471925153223216,-0.2088933946382345,0.047348866266304385,0.2735864876218474,0.4559971559160044,0.5893484036496779,0.6762401780294495,0.7235421641007767,0.744399459615508,0.7512737709276948,0.7547249549129607,0.7618031006732495,0.7740434592895549,0.792204110298968,0.8132730550597983,0.0,0.0,0.0,0.0,0.0,0.0,0.0,0.0,0.0,0.0,0.0,0.0,0.0,0.0,0.0,0.0,0.0,0.0,0.0,0.0,0.0,0.0,0.0,0.0,0.0,0.0,0.0,0.0,0.0,0.0,0.0,0.0,0.0,0.0,0.0,0.0,0.0,0.0,0.0,0.0,0.0,0.0,0.0,0.0,0.0,0.0,0.0,0.0,0.0,0.0,0.0,0.0,0.0,0.0,0.0,0.0,0.0,0.0,0.0,0.0,0.0,0.0,0.0,0.0,0.0,0.0,0.0,0.0,0.0,0.0,0.0,0.0,0.0,0.0,0.0,0.0,0.0,0.0,0.0,0.0,0.0,0.0,0.0,0.0,0.0,0.0,0.0,0.0,0.0,0.0,0.0,0.0,0.0,0.0,0.0,0.0,0.0,0.0,0.0,0.0,0.0,0.0,0.0,0.0,0.0,0.0,0.0,0.0,0.0,0.0,0.0,0.0,0.0,0.0,0.0,0.0,0.0,0.0,0.0,0.0,0.0,0.0
-0.13515428950836222,-0.11906305139658718,-0.08021745770887176,-0.02190815938227704,0.05028123668352613,0.12925406119315577,0.20689451543813572,0.2766441266184804,0.3329772172975424,0.3723974970935051,0.39366241189467366,0.3970959217601076,0.3859642501712436,0.36424285377253035,0.3364170756212888,0.3068168402492491,0.27855252173354683,0.254784764588971,0.23702636547737405,0.22562927775778419,0.21997126860382454,0.21828839019661378,0.21952037372722594,0.22221491659163106,0.22522012962617005,0.22782765496730245,0.229381764335722,0.2305102955669226,0.23164926852106377,0.23326292547413863,0.2356840413307803,0.23866367800250746,0.24249838845280283,0.24688973309908094,0.2514353081887659,0.25577228870115437,0.25938819284743975,0.2627545163735287,0.26623855716586187,0.2703968057952195,0.27586053607152844,0.2828926513013979,0.29217988913499,0.30369933053130643,0.3169978034611909,0.3312562810964373,0.3451843685577834,0.3580603420969891,0.36927861727853434,0.37869326317733465,0.3866520261213462,0.3936495445463805,0.40078227422931995,0.40908895803272216,0.4192543348261003,0.43130908242068294,0.4441744007326226,0.4567506182838015,0.46730362724002983,0.4741301156483817,0.4759661387200197,0.4718995708814865,0.4628266427352562,0.44991556242414676,0.43481044825331455,0.4192598594879278,0.4043631585801133,0.39144529076330414,0.38065315294335883,0.37139197543251323,0.3625535802558359,0.3525360373566797,0.34066268584787524,0.32643712851650614,0.3100133392022607,0.29216810395545456,0.27380599609458073,0.2566463234366162,0.24188761521719182,0.2302424824157987,0.2217826276550732,0.21565987293840747,0.21119131135805091,0.20717287318565758,0.2025238105317432,0.19660794134561738,0.18917710284475994,0.181371324491779,0.17462256546273094,0.17071589336478812,0.17143325503616152,0.1778856645492253,0.1911065739059588,0.21081617927571678,0.23571287479467085,0.26362796748930745,0.2915079386090444,0.3169245522330191,0.33728955860383125,0.35062325513568227,0.3558226799424533,0.3523961461609152,0.3416895159956745,0.3253001165381943,0.3052678408363883,0.2837870001527358,0.26234261262129976,0.24339520198358328,0.22827836350420372,0.21770424815822625,0.21175132036301825,0.20913522419223474,0.20990260505292582,0.21313740594378863,0.21786656210037342,0.2231772616147966,0.2278449807564365,0.2317847208965089,0.23448249332956245,0.23551554675579436,0.2346032028665749,0.23160206937231528,0.22687251663516872,0.2206394706287339,0.21327341891191273,0.20529840977180075,0.19719788328084792,0.18989063338740292,0.1838454807349604,0.17925345904890583,0.1759936166770266,0.1734227196999108,0.1712929895655984,0.1690377338690452,0.16621922509022236,0.16267692177253268,0.15836672455359022,0.15412463384054514,0.15072846903257983,0.1489559766923214,0.1493602268680387,0.1518466591372057,0.15633172768250692,0.16202432927312194,0.16786300188620445,0.17284519307377338,0.176129093212829,0.17835123479139603,0.1808163300984373,0.18581316064866593,0.19633015927950803,0.2151595033013861,0.2453335892329105,0.288064670384395,0.34252720070026166,0.4055252257971303,0.47124897316107817,0.5328442705781861,0.582216453121908,0.6115782858900767,0.6147202923147526,0.5878372093858565,0.5312027461948317,0.4484461040352495,0.3464848926747241,0.2346344942743801,0.12300882667349212,0.022123374764016115,-0.0595176455110036,-0.11617014003134159,-0.14545130376599236,-0.14875398972119552,-0.12961290819746407,-0.09396972326528026,-0.04872747798571419,-0.0006440334861037884,0.04422558007027107,0.08230163192032379,0.0,0.0,0.0,0.0,0.0,0.0,0.0,0.0,0.0,0.0,0.0,0.0,0.0,0.0,0.0,0.0,0.0,0.0,0.0,0.0,0.0,0.0,0.0,0.0,0.0,0.0,0.0,0.0,0.0,0.0,0.0,0.0,0.0,0.0,0.0,0.0,0.0,0.0,0.0,0.0,0.0,0.0,0.0,0.0,0.0,0.0,0.0,0.0,0.0,0.0,0.0,0.0,0.0,0.0,0.0,0.0,0.0,0.0,0.0,0.0,0.0,0.0,0.0,0.0,0.0,0.0,0.0,0.0,0.0,0.0,0.0,0.0,0.0,0.0,0.0,0.0,0.0,0.0,0.0,0.0,0.0,0.0,0.0,0.0,0.0,0.0,0.0,0.0,0.0,0.0,0.0,0.0,0.0,0.0,0.0,0.0,0.0,0.0,0.0,0.0,0.0,0.0,0.0,0.0,0.0,0.0,0.0,0.0,0.0,0.0,0.0,0.0,0.0,0.0,0.0,0.0,0.0,0.0,0.0,0.0,0.0,0.0,-1.0940269673059184,-1.0524352177928584,-0.922705838607833,-0.7219513462272829,-0.47471925153223216,-0.2088933946382345,0.047348866266304385,0.2735864876218474,0.4559971559160044,0.5893484036496779,0.6762401780294495,0.7235421641007767,0.744399459615508,0.7512737709276948,0.7547249549129607,0.7618031006732495,0.7740434592895549,0.792204110298968,0.8132730550597983,0.833025482732572,0.8473660233170496,0.8521178747143106,0.8476709668033243,0.8351296674880256,0.8171109610996709,0.7970240815775366,0.7771427063163006,0.7613972500794183,0.751266658179007,0.7467694496523475,0.7466821398380236,0.7481060489030169,0.7500953045622587,0.7509236324557086,0.7495896302003028,0.7460617522958597,0.740398306215422,0.7354746804144155,0.7334163274342904,0.7362298522248546,0.7454413647536958,0.7609525748007586,0.783713453705206,0.8125838948273839,0.8455098206080465,0.8799110855640065,0.91270515085031,0.9423309222951292,0.9682893518263583,0.9915497054731055,1.0143808063743172,1.0396608287453397,1.0700925569923807,1.108427704573581,1.1557984695640287,1.2108577518378199,1.2689304136251014,1.324144712509081,1.3695591768794868,1.3987854908347723,1.4073346973013223,1.3925758117309113,1.3573437237642838,1.3063415635259437,1.2461155746076678,1.1836438792145132,1.1238958373766597,1.0718461842194404,1.0286039883771538,0.9925259409942914,0.9599530611277041,0.9254402077158476,0.8861604395274907,0.8397072108610009,0.7858370123256241,0.726593295211553,0.6649760022880352,0.6069127651384758,0.5570532203529484,0.5187224322684949,0.4932335292954018,0.4788846855773055,0.47393689934329414,0.4745109639975497,0.47652671135479846,0.4767540244984177,0.47283034722021333,0.46627725453908914,0.45951976235645214,0.45619992524563274,0.46027451970143346,0.4742231752105874,0.500795595124023,0.5396567210132244,0.58824568627265,0.6422204892941645,0.6953106365608378,0.7434890451235661,0.7825000785363352,0.8096523131302362,0.8241664588868954,0.825976211608413,0.8190554870241534,0.8067669769639941,0.7924156120973147,0.7786402030923855,0.7656595682828782,0.7556030857027419,0.7478702336525326,0.740989729153724,0.7331139472978756,0.7209673812297447,0.7054716162362067,0.6864893582980272,0.6646623329102345,0.641302197308389,0.6171127188392144,0.5951303490415515,0.5764657703579786,0.5614066192995985,0.5494904473189022,0.5393719220426252,0.5306744888888862,0.5221229707949401,0.5127339893104034,0.502122214325729,0.49012001442760394,0.4784090830084373,0.468085072917018,0.46005231319258033,0.45475398133255585,0.45142159665045034,0.45007721089732966,0.44966867153286716,0.44904281507148813,0.4473310502953339,0.44370367575155906,0.4394757186234091,0.436101476831807,0.435555700325438,0.43990811925811196,0.45023954149137363,0.46799847350463675,0.49276588094088064,0.5228216108707071,0.5554383196525234,0.5866289892811144,0.6146212685993931,0.6377936533396884,0.656052456881447,0.6709685200469349,0.6843593483521999,0.7011745021522847,0.7248251884201269,0.7572352298523045,0.7979307244107461,0.8424605065137242,0.8859231221419613,0.9201387932540369,0.9359649419025906,0.9248929287745574,0.8796946332963553,0.7991878757979822,0.6857692630150753,0.5465669567771145,0.39272440030033645,0.23699078441981342,0.09479583666977297,-0.02090242028996282,-0.10057919540511759,-0.13944412817388452,-0.13877953283547292,-0.10277771369845441,-0.04007726716245561,0.03871311631509536,0.12280046818904078,0.2019888464937953,0.27029047330051936,0.0,0.0,0.0,0.0,0.0,0.0,0.0,0.0,0.0,0.0,0.0,0.0,0.0,0.0,0.0,0.0,0.0,0.0,0.0,0.0,0.0,0.0,0.0,0.0,0.0,0.0,0.0,0.0,0.0,0.0,0.0,0.0,0.0,0.0,0.0,0.0,0.0,0.0,0.0,0.0,0.0,0.0,0.0,0.0,0.0,0.0,0.0,0.0,0.0,0.0,0.0,0.0,0.0,0.0,0.0,0.0,0.0,0.0,0.0,0.0,0.0,0.0,0.0,0.0,0.0,0.0,0.0,0.0,0.0,0.0,0.0,0.0,0.0,0.0,0.0,0.0,0.0,0.0,0.0,0.0,0.0,0.0,0.0,0.0,0.0,0.0,0.0,0.0,0.0,0.0,0.0,0.0,0.0,0.0,0.0,0.0,0.0,0.0,0.0,0.0,0.0,0.0,0.0,0.0,0.0,0.0,0.0,0.0,0.0,0.0,0.0,0.0,0.0,0.0,0.0,0.0,0.0,0.0,0.0,0.0,0.0,0.0
0.582216453121908,0.6115782858900767,0.6147202923147526,0.5878372093858565,0.5312027461948317,0.4484461040352495,0.3464848926747241,0.2346344942743801,0.12300882667349212,0.022123374764016115,-0.0595176455110036,-0.11617014003134159,-0.14545130376599236,-0.14875398972119552,-0.12961290819746407,-0.09396972326528026,-0.04872747798571419,-0.0006440334861037884,0.04422558007027107,0.08230163192032379,0.11158500719947557,0.13183954654405544,0.14416323679378476,0.15004862290100737,0.15199484567673027,0.1519738970166601,0.15146727195733217,0.15136243685004036,0.15161789969121064,0.15261216688236834,0.15422104096113678,0.15626277430676402,0.15856163690629602,0.1605647134668885,0.16256298289062743,0.16457278260281583,0.16662509859773122,0.16873996924746829,0.17059585912834513,0.17252453753972935,0.17455691399855908,0.17669873910217926,0.17891830158864053,0.18090520805003965,0.1828443474434152,0.18463604928975935,0.18619125165070505,0.18748217423678307,0.18822896741418038,0.18914109951337008,0.19052761751614986,0.19272349920697346,0.1960460468849256,0.20025145092283836,0.206139981837965,0.21355614836551814,0.2220733791176061,0.2310973644597378,0.23972775371635383,0.24776651815074016,0.25488240823050884,0.2609672975051097,0.26614868203454994,0.2706881545901219,0.2749746101075645,0.27947487214339584,0.28451195683253805,0.29013679132988895,0.29596923276736986,0.3016440974059266,0.3067036294084631,0.3108572895444049,0.3141249006252281,0.31668583564091973,0.31943380803041554,0.32313382844427607,0.3283539084084554,0.33520342320014723,0.3429475882296046,0.3506610687768407,0.3566857828379147,0.3591364994334466,0.35628194577506644,0.3467018811241776,0.3303054226181343,0.30773706467103273,0.2805456315622426,0.250952675888011,0.22125403589216244,0.19420072110328573,0.17184294450715368,0.15549864388976573,0.14562340600095558,0.14157307206541822,0.14260495779989008,0.14728432330866764,0.154019740478871,0.16131709344198847,0.16752342813775675,0.17231699488742008,0.1754352364847877,0.17693163668100786,0.17701078088302133,0.175247854144778,0.17244201779033713,0.16890565406732183,0.16493908075312153,0.16082763363604755,0.15649737741771858,0.15256425419907427,0.14923155078543324,0.14659644962492258,0.14464448638907382,0.14322923004743093,0.14231184072839642,0.14156621623329985,0.14066988514257867,0.139426300062135,0.13770653800746385,0.13600587501951333,0.13465058196881008,0.13397051558577777,0.13420811373519617,0.13519219497458435,0.13718492018727915,0.13989432013923872,0.14291160896132887,0.14585077299241664,0.1481334471381906,0.15020443619245216,0.15227245313678212,0.15462437194339018,0.1574934322496371,0.16049283136645967,0.16394594440888002,0.16742357904671115,0.17034159176513675,0.1722055385859327,0.17259031547963807,0.17245332471845942,0.17322640499644174,0.17712873855365396,0.18691764492222823,0.20520598441633048,0.23448322575873062,0.27575594177422447,0.32816329738702543,0.38864414900774813,0.45176507755455336,0.5108967423234779,0.5583649693052016,0.5868052569308327,0.5903706530932681,0.5655631022129471,0.5126764455547241,0.4352298144356851,0.3398392181209598,0.23534115282592044,0.13133176681188583,0.03748821904034975,-0.03845119290051988,-0.0914501316606275,-0.11968834744142721,-0.12474859220346217,-0.11040351884618896,-0.08238351602977965,-0.04706117538718965,-0.01035857299200842,0.02289465107663439,0.05027839737123714,0.07115992028066276,0.08664016976345186,0.09897120145741035,0.11054165120862673,0.12402352817819623,0.14098592496642984,0.16180279916312917,0.1856049170057928,0.0,0.0,0.0,0.0,0.0,0.0,0.0,0.0,0.0,0.0,0.0,0.0,0.0,0.0,0.0,0.0,0.0,0.0,0.0,0.0,0.0,0.0,0.0,0.0,0.0,0.0,0.0,0.0,0.0,0.0,0.0,0.0,0.0,0.0,0.0,0.0,0.0,0.0,0.0,0.0,0.0,0.0,0.0,0.0,0.0,0.0,0.0,0.0,0.0,0.0,0.0,0.0,0.0,0.0,0.0,0.0,0.0,0.0,0.0,0.0,0.0,0.0,0.0,0.0,0.0,0.0,0.0,0.0,0.0,0.0,0.0,0.0,0.0,0.0,0.0,0.0,0.0,0.0,0.0,0.0,0.0,0.0,0.0,0.0,0.0,0.0,0.0,0.0,0.0,0.0,0.0,0.0,0.0,0.0,0.0,0.0,0.0,0.0,0.0,0.0,0.0,0.0,0.0,0.0,0.0,0.0,0.0,0.0,0.0,0.0,0.0,0.0,0.0,0.0,0.0,0.0,0.0,0.0,0.0,0.0,0.0,0.0,0.9201387932540369,0.9359649419025906,0.9248929287745574,0.8796946332963553,0.7991878757979822,0.6857692630150753,0.5465669567771145,0.39272440030033645,0.23699078441981342,0.09479583666977297,-0.02090242028996282,-0.10057919540511759,-0.13944412817388452,-0.13877953283547292,-0.10277771369845441,-0.04007726716245561,0.03871311631509536,0.12280046818904078,0.2019888464937953,0.27029047330051936,0.32389975309952135,0.3617821318495615,0.3850450645519661,0.3953674934861274,0.3964756439197304,0.3912821385761502,0.3822730607401824,0.37150799569382703,0.3600655857368045,0.35070303120571145,0.3456740020115422,0.34735980233317243,0.357970926835688,0.3783062436947067,0.40980237853698703,0.45178585479132727,0.5020670333224863,0.5571076433959883,0.6116534909683278,0.6620854638395768,0.7045192095566879,0.736266560650117,0.7562443599562887,0.7641883200011739,0.7632241779285849,0.756435667388512,0.7470920551750054,0.7379875561817731,0.7300860297944809,0.7251334504748463,0.7226797214306387,0.7214194238463139,0.7197307524072577,0.7153759254070792,0.7087627292817013,0.6999054890131046,0.6894300557672656,0.678356325002544,0.6672364244640826,0.6575077789957527,0.6495087445827816,0.6429400035069132,0.6369818975978302,0.6303477109999949,0.6221418172289948,0.6118734517611021,0.5996086736517608,0.585938896149844,0.5714933423029271,0.5578593491795253,0.5464222190091802,0.5384471993738184,0.5348958947018577,0.5357688628611644,0.541657069341384,0.552015303452229,0.5657232480863056,0.5812098226576062,0.5960542274268726,0.6091835191149271,0.6192558211826112,0.6254402467598481,0.6275237506133547,0.6251926586945585,0.6201134036978686,0.6136101487091223,0.6069694512390723,0.6011271541839002,0.5956779671429988,0.5912520592590992,0.5870866412627243,0.5820075843505361,0.5747305577544457,0.563367615723354,0.54841847346668,0.5300275360123421,0.5089527991132738,0.4864661887741604,0.46318389309968233,0.4417972286172077,0.42358458091477613,0.4091282488173712,0.3982018197938752,0.38879740128184237,0.3807823028217491,0.3728949095172289,0.3641690702955923,0.3542235724184624,0.34275235793224623,0.33150310666655725,0.321669029330795,0.31434230382367295,0.3102453250430496,0.30937798243054027,0.31174917447111844,0.3162063210640748,0.3212766427442324,0.3256431242156446,0.3282422820775163,0.32981674086736346,0.33134743697830943,0.33445150599482976,0.34104092338823966,0.3523391044796177,0.3701690161280975,0.394654331962885,0.4247043101942436,0.4581360839096981,0.4913651828387729,0.522095396892518,0.5475397903655742,0.5656142061333286,0.5752312444311567,0.5755738526747026,0.5685798559258249,0.555969811244113,0.539756006923851,0.5219601526045117,0.5036377251494193,0.4874644166233499,0.4751428286605332,0.4683309227855712,0.4686890607778666,0.47697854874251516,0.4954167902420528,0.5246142825657664,0.5638801175340501,0.6107743873493717,0.660115299427687,0.7065209607761489,0.7425491133829972,0.7603471419243512,0.7528597139208767,0.7144218787211872,0.6441337345534183,0.5444368725539384,0.4218480525218783,0.28634074229832984,0.14942362372363088,0.02450378986240645,-0.07695939314042494,-0.14656637572121978,-0.18017822932421704,-0.17898704591842207,-0.14723240626262896,-0.09290814129990639,-0.025651776976368397,0.04498440790047179,0.11043130376911119,0.16620733806733293,0.21042319389436334,0.24406396356261764,0.27014704512516063,0.29189496488117483,0.3137325564973848,0.3383632302301053,0.3668499838602172,0.3985613197723493,0.0,0.0,0.0,0.0,0.0,0.0,0.0,0.0,0.0,0.0,0.0,0.0,0.0,0.0,0.0,0.0,0.0,0.0,0.0,0.0,0.0,0.0,0.0,0.0,0.0,0.0,0.0,0.0,0.0,0.0,0.0,0.0,0.0,0.0,0.0,0.0,0.0,0.0,0.0,0.0,0.0,0.0,0.0,0.0,0.0,0.0,0.0,0.0,0.0,0.0,0.0,0.0,0.0,0.0,0.0,0.0,0.0,0.0,0.0,0.0,0.0,0.0,0.0,0.0,0.0,0.0,0.0,0.0,0.0,0.0,0.0,0.0,0.0,0.0,0.0,0.0,0.0,0.0,0.0,0.0,0.0,0.0,0.0,0.0,0.0,0.0,0.0,0.0,0.0,0.0,0.0,0.0,0.0,0.0,0.0,0.0,0.0,0.0,0.0,0.0,0.0,0.0,0.0,0.0,0.0,0.0,0.0,0.0,0.0,0.0,0.0,0.0,0.0,0.0,0.0,0.0,0.0,0.0,0.0,0.0,0.0,0.0
0.5583649693052016,0.5868052569308327,0.5903706530932681,0.5655631022129471,0.5126764455547241,0.4352298144356851,0.3398392181209598,0.23534115282592044,0.13133176681188583,0.03748821904034975,-0.03845119290051988,-0.0914501316606275,-0.11968834744142721,-0.12474859220346217,-0.11040351884618896,-0.08238351602977965,-0.04706117538718965,-0.01035857299200842,0.02289465107663439,0.05027839737123714,0.07115992028066276,0.08664016976345186,0.09897120145741035,0.11054165120862673,0.12402352817819623,0.14098592496642984,0.16180279916312917,0.1856049170057928,0.21014106179418987,0.2333087212033335,0.2526431889868855,0.2660689782635003,0.27223863255417524,0.2702750806990267,0.2611474334892862,0.24632650760106836,0.22785510450987886,0.20799555120603347,0.18852371701659404,0.1715282595802596,0.1581867791480412,0.14898508329629864,0.14375246985789172,0.14154310020709657,0.14168281300086083,0.143157558959924,0.14508142811611824,0.1468373796775607,0.14776952621684525,0.14837007900947874,0.14881555240649644,0.14929612749301666,0.14992228949722972,0.15021017596708655,0.1506940544078648,0.15111036775842734,0.1511637576873273,0.15069389560980723,0.1495382064206841,0.1484111503221379,0.14792794201616297,0.14875872523622763,0.15146550172238477,0.15630051313748583,0.1631959842303112,0.1718026697783531,0.1814894164727051,0.19146568901268102,0.20090255141546748,0.20935776784436638,0.21682332619948808,0.2238458342059858,0.23146587630297724,0.24091082633252675,0.25357484209512565,0.2702858060649026,0.2910844427993521,0.31503042173466156,0.3400337734286173,0.36369588084002497,0.38306350288246255,0.39537675955918616,0.3985949671663459,0.39153102595835887,0.37493761593159153,0.3504583496622583,0.32066343681061066,0.2886120987503873,0.2568938857272799,0.22860512001667718,0.20567253788753795,0.1890375571443766,0.17862923033442873,0.17286399017107307,0.17091381030151,0.1713790486839376,0.17300533802565846,0.17482409126253828,0.1758723255399414,0.1760972068104823,0.17537203033690982,0.17367145193378283,0.1710189521906478,0.16751547636962907,0.1632982509276924,0.15845113847822317,0.1531214619654847,0.14754860862060695,0.14198621415882903,0.1368523539878302,0.13227921982825425,0.1281510156387576,0.12407826505056613,0.11930232672642885,0.11335274033057921,0.10569216234582957,0.09611701693669031,0.08492913810780527,0.07281650300959115,0.06136699361334101,0.052156856061292195,0.046636540969432795,0.04578001116504444,0.04960355598567705,0.05774494768811581,0.06878127308486157,0.08083000115701731,0.09207205040082059,0.10103383407505516,0.10811076653462791,0.1147111929507348,0.12357481320780032,0.13836408963659674,0.1625297728156045,0.19973151879421985,0.25142627260568956,0.3166150309401522,0.39151116429308663,0.46934856197257546,0.5422496880844627,0.6011281747640886,0.6374537779577286,0.6446582389495764,0.6189844367439379,0.5612019071856366,0.4757366636824035,0.37041138855289923,0.25534257263405435,0.14115646384466915,0.038468419516368396,-0.04447840312956007,-0.10251090793244418,-0.13397309368146768,-0.14091873706177727,-0.12739523176869436,-0.09942063118154999,-0.06354884144213191,-0.02582191002150275,0.008684896719220677,0.03729101301579827,0.058792169762143354,0.07342046901242032,0.08232927363846218,0.08672224210127065,0.08838039802092008,0.08850596513814363,0.08789592106572923,0.08701938457563234,0.08595383135302062,0.08527936656622226,0.08554669384307854,0.08745068112602208,0.09170949551280248,0.0987310176225014,0.1088827988666293,0.1219722965348992,0.1373318429749575,0.15390395189418557,0.0,0.0,0.0,0.0,0.0,0.0,0.0,0.0,0.0,0.0,0.0,0.0,0.0,0.0,0.0,0.0,0.0,0.0,0.0,0.0,0.0,0.0,0.0,0.0,0.0,0.0,0.0,0.0,0.0,0.0,0.0,0.0,0.0,0.0,0.0,0.0,0.0,0.0,0.0,0.0,0.0,0.0,0.0,0.0,0.0,0.0,0.0,0.0,0.0,0.0,0.0,0.0,0.0,0.0,0.0,0.0,0.0,0.0,0.0,0.0,0.0,0.0,0.0,0.0,0.0,0.0,0.0,0.0,0.0,0.0,0.0,0.0,0.0,0.0,0.0,0.0,0.0,0.0,0.0,0.0,0.0,0.0,0.0,0.0,0.0,0.0,0.0,0.0,0.0,0.0,0.0,0.0,0.0,0.0,0.0,0.0,0.0,0.0,0.0,0.0,0.0,0.0,0.0,0.0,0.0,0.0,0.0,0.0,0.0,0.0,0.0,0.0,0.0,0.0,0.0,0.0,0.0,0.0,0.0,0.0,0.0,0.0,0.7425491133829972,0.7603471419243512,0.7528597139208767,0.7144218787211872,0.6441337345534183,0.5444368725539384,0.4218480525218783,0.28634074229832984,0.14942362372363088,0.02450378986240645,-0.07695939314042494,-0.14656637572121978,-0.18017822932421704,-0.17898704591842207,-0.14723240626262896,-0.09290814129990639,-0.025651776976368397,0.04498440790047179,0.11043130376911119,0.16620733806733293,0.21042319389436334,0.24406396356261764,0.27014704512516063,0.29189496488117483,0.3137325564973848,0.3383632302301053,0.3668499838602172,0.3985613197723493,0.43074918898891745,0.4616985562750709,0.4890320021526947,0.511030768098173,0.5269755944195381,0.5363014657354733,0.5412453197201869,0.5436338491165836,0.5452748630379968,0.5475417485949693,0.550302694804281,0.5544316929455074,0.55939218319906,0.5642730149160505,0.5681079027704004,0.5694521294072304,0.5688656964490633,0.5666865058758221,0.5636058593542441,0.5604409282820333,0.557138941425361,0.5549684611067924,0.553899506427862,0.5534336175135102,0.5527739537936661,0.5503150723852309,0.5464079086256407,0.5407869134873465,0.5335715317410568,0.5252848494045873,0.5163032553196376,0.5081542172463125,0.5018787908340788,0.49828050828297893,0.4977957450155084,0.5002680434522592,0.5053731940929274,0.5125649659359595,0.521115323230188,0.5301834269711461,0.5386213432901107,0.5460534666600371,0.552280664040928,0.5575608298172413,0.5625711089267839,0.5678022974419754,0.5747392522586093,0.5841695308117301,0.5963220798438745,0.6106876047407495,0.6253756474263906,0.6393193025261198,0.6506166177820815,0.6575218640528298,0.658804100554715,0.6531802647526134,0.6420180108885738,0.6266483086984829,0.608868831495436,0.5905592167038026,0.5723387380411916,0.5562915151799507,0.5428902806541444,0.5318590841677426,0.5223143328528903,0.5119466485254496,0.5007969702048038,0.4883153979894025,0.47448735252916535,0.45981201541054334,0.44452609442832386,0.43026031490043865,0.41764005435895524,0.40678621525004255,0.39730969796819643,0.3883745698016646,0.37940603639582055,0.3694244906303444,0.3577801419434975,0.344444174685286,0.3298360194752421,0.31579973298137565,0.303899219950095,0.29553241299457106,0.2915786514023755,0.2916499430548474,0.2957280271526437,0.3024790514143103,0.3102136147026551,0.31737486461723613,0.3224363017534001,0.3261474445653372,0.3295659848010826,0.3345193076983019,0.3431710778320968,0.3567915479488449,0.377316159564573,0.40467424078955444,0.43739298989536785,0.4728562869148368,0.5070902842168871,0.5381571671305722,0.5642752795058469,0.585224638503891,0.6025414959975767,0.6182845206007698,0.6373780987560936,0.6634713573148322,0.6987055236110198,0.7427000566462563,0.7910561685272891,0.8383026534514724,0.8757351756847952,0.893609960024362,0.8828586172949358,0.8360297108393021,0.7515796639949771,0.6321341259006251,0.4853862530519659,0.3232735036067163,0.15949020013934406,0.010097199805702149,-0.11135259858970613,-0.1950533757087684,-0.2363116100815032,-0.2368767269337194,-0.20168162283174781,-0.1400233483974624,-0.06299875830188924,0.01841854663740156,0.09419130140423224,0.1589172130435885,0.20983411233735225,0.24714862080137057,0.2731487033563063,0.2902901231806308,0.30264463877792946,0.3129655931187655,0.32297246337419333,0.333386295114274,0.3435623721026754,0.35413615967796047,0.3654215251442006,0.37819491908692865,0.3936238868722417,0.4123783586461548,0.4361041740173033,0.46520321728044217,0.49910289347264636,0.5361961309004774,0.0,0.0,0.0,0.0,0.0,0.0,0.0,0.0,0.0,0.0,0.0,0.0,0.0,0.0,0.0,0.0,0.0,0.0,0.0,0.0,0.0,0.0,0.0,0.0,0.0,0.0,0.0,0.0,0.0,0.0,0.0,0.0,0.0,0.0,0.0,0.0,0.0,0.0,0.0,0.0,0.0,0.0,0.0,0.0,0.0,0.0,0.0,0.0,0.0,0.0,0.0,0.0,0.0,0.0,0.0,0.0,0.0,0.0,0.0,0.0,0.0,0.0,0.0,0.0,0.0,0.0,0.0,0.0,0.0,0.0,0.0,0.0,0.0,0.0,0.0,0.0,0.0,0.0,0.0,0.0,0.0,0.0,0.0,0.0,0.0,0.0,0.0,0.0,0.0,0.0,0.0,0.0,0.0,0.0,0.0,0.0,0.0,0.0,0.0,0.0,0.0,0.0,0.0,0.0,0.0,0.0,0.0,0.0,0.0,0.0,0.0,0.0,0.0,0.0,0.0,0.0,0.0,0.0,0.0,0.0,0.0,0.0
0.5422496880844627,0.6011281747640886,0.6374537779577286,0.6446582389495764,0.6189844367439379,0.5612019071856366,0.4757366636824035,0.37041138855289923,0.25534257263405435,0.14115646384466915,0.038468419516368396,-0.04447840312956007,-0.10251090793244418,-0.13397309368146768,-0.14091873706177727,-0.12739523176869436,-0.09942063118154999,-0.06354884144213191,-0.02582191002150275,0.008684896719220677,0.03729101301579827,0.058792169762143354,0.07342046901242032,0.08232927363846218,0.08672224210127065,0.08838039802092008,0.08850596513814363,0.08789592106572923,0.08701938457563234,0.08595383135302062,0.08527936656622226,0.08554669384307854,0.08745068112602208,0.09170949551280248,0.0987310176225014,0.1088827988666293,0.1219722965348992,0.1373318429749575,0.15390395189418557,0.17019228839182352,0.18522274231920144,0.1981137119000583,0.20840680638523323,0.21609840827556864,0.22124901473784106,0.22482981206152516,0.22762899350204996,0.23033073641479335,0.233373588375185,0.2364765084464009,0.24005126483498052,0.24381947861570727,0.2474386849383335,0.25064876847480133,0.2528551120718002,0.25491358719314583,0.25701399662537544,0.2593067791625815,0.26185820953044625,0.264338774754338,0.2669424918150347,0.2694328927814392,0.2715396879934855,0.2730676505860912,0.27393987735839626,0.27431192747581185,0.2746069128336318,0.27530535808023254,0.2767363748576039,0.27880215304815686,0.28112236961758713,0.28289057048542343,0.2830311930590446,0.28040509912911643,0.27392677561862533,0.2632089907714707,0.24832208594982938,0.2299803343908321,0.20949210513772087,0.188301492326838,0.1687146811123659,0.15281027722083515,0.14236608068204282,0.13857911114632535,0.1413776843850124,0.1508301869103025,0.16595889095216204,0.18518811231595889,0.20651665542029168,0.22753480739026805,0.24634672905477756,0.26115436249410373,0.2707041576023963,0.27445419969425805,0.2727095656743332,0.2663963635973603,0.25675120966886356,0.24519388328597438,0.23311500557854106,0.22153278713819827,0.2115020630768238,0.20335675493005126,0.19695458858303985,0.1917758114628241,0.18669572852867694,0.18143418262554642,0.17550786919624123,0.16873388008598786,0.16127323651274597,0.15321734939156031,0.14562345795138212,0.13914157589175769,0.13418303133808146,0.13077066156266784,0.12814996232168044,0.12594501825824553,0.12321629782047058,0.11910809862475791,0.11318262464076871,0.1053910472716813,0.09732721028940822,0.0911049237167002,0.08950910484293609,0.09559458771886957,0.11181357670016233,0.14045283572692727,0.18194367540167936,0.23480675089889613,0.2955053889587719,0.35834637798077734,0.41685498459652903,0.4636548451009469,0.49172218483142166,0.4954161901986742,0.4711878193599984,0.41894945920274335,0.3416745873605328,0.24543690135393748,0.1387864666349709,0.03132469053957998,-0.06619880177623472,-0.14444360350413654,-0.19631131124227874,-0.21784325692873244,-0.20929135901337573,-0.17305172040990757,-0.11488566957511612,-0.04245541257864015,0.03580140615590835,0.11123479439247556,0.17771955226156216,0.2307098104565489,0.26796743389224637,0.2894460692405491,0.29637705264555414,0.292253261816518,0.28077903160962814,0.26564805596324276,0.25002544235673385,0.23577928146104207,0.22463781709668995,0.21704628417094704,0.21266275380199476,0.21060481547291862,0.2094048120911406,0.20834788967738344,0.2067611480166365,0.2044011381836639,0.2014401175528651,0.19806423316193958,0.19512291637301363,0.1931254108757259,0.19226038819295235,0.19227541963281156,0.19227449829153115,0.19152425765736816,0.18910936832502342,0.18442380098904454,0.0,0.0,0.0,0.0,0.0,0.0,0.0,0.0,0.0,0.0,0.0,0.0,0.0,0.0,0.0,0.0,0.0,0.0,0.0,0.0,0.0,0.0,0.0,0.0,0.0,0.0,0.0,0.0,0.0,0.0,0.0,0.0,0.0,0.0,0.0,0.0,0.0,0.0,0.0,0.0,0.0,0.0,0.0,0.0,0.0,0.0,0.0,0.0,0.0,0.0,0.0,0.0,0.0,0.0,0.0,0.0,0.0,0.0,0.0,0.0,0.0,0.0,0.0,0.0,0.0,0.0,0.0,0.0,0.0,0.0,0.0,0.0,0.0,0.0,0.0,0.0,0.0,0.0,0.0,0.0,0.0,0.0,0.0,0.0,0.0,0.0,0.0,0.0,0.0,0.0,0.0,0.0,0.0,0.0,0.0,0.0,0.0,0.0,0.0,0.0,0.0,0.0,0.0,0.0,0.0,0.0,0.0,0.0,0.0,0.0,0.0,0.0,0.0,0.0,0.0,0.0,0.0,0.0,0.0,0.0,0.0,0.0,0.8383026534514724,0.8757351756847952,0.893609960024362,0.8828586172949358,0.8360297108393021,0.7515796639949771,0.6321341259006251,0.4853862530519659,0.3232735036067163,0.15949020013934406,0.010097199805702149,-0.11135259858970613,-0.1950533757087684,-0.2363116100815032,-0.2368767269337194,-0.20168162283174781,-0.1400233483974624,-0.06299875830188924,0.01841854663740156,0.09419130140423224,0.1589172130435885,0.20983411233735225,0.24714862080137057,0.2731487033563063,0.2902901231806308,0.30264463877792946,0.3129655931187655,0.32297246337419333,0.333386295114274,0.3435623721026754,0.35413615967796047,0.3654215251442006,0.37819491908692865,0.3936238868722417,0.4123783586461548,0.4361041740173033,0.46520321728044217,0.49910289347264636,0.5361961309004774,0.5732566618971535,0.6083247352450483,0.6388020697025335,0.6626583463123599,0.6787683749287131,0.686089150040997,0.6866606854472542,0.6823315278913036,0.6752806781774046,0.667600145819991,0.6599935734285542,0.6547246675186454,0.6523879628050588,0.6530435573637139,0.6564319167112691,0.6612168315461003,0.6683088001028328,0.6774662989311223,0.6883314785555931,0.7003540636811489,0.7121134409925836,0.7232822597173267,0.7328942790819736,0.7400784604526122,0.7442762106510288,0.7451405261171561,0.7432941092369557,0.7399313837424155,0.7364739847151356,0.7340913469912346,0.7328816499682761,0.7327418173832043,0.7324787930553414,0.7302429899487807,0.7239064833314404,0.7110499993889858,0.6909840329020643,0.6636186260987041,0.6300638780950932,0.5925645094732791,0.5536848815814872,0.5176731326519921,0.48826230341015553,0.4686852885903203,0.4612225356151179,0.46624709887983534,0.48403389145781484,0.5128242187392698,0.5496084923404158,0.5904819126407895,0.6309313585870564,0.6671715474294925,0.6955207110669834,0.7133974291789493,0.7197412896664612,0.7153899474543767,0.7024761775166084,0.6835333597259914,0.6613020511935505,0.6383160785643309,0.6162383742081333,0.5969981351821119,0.5810094623294555,0.5679241677091631,0.5568908674622008,0.5459087496531849,0.5351402276143108,0.5240485300246296,0.5124135440343957,0.5003154591232187,0.4871325632151533,0.47441493159994486,0.4627110378836158,0.45242187985456855,0.4437400507842367,0.4357288026654554,0.4292608375091705,0.4239934663629791,0.41941180079180246,0.41494659103052567,0.40924985003425246,0.40316093673752557,0.3968539459998193,0.39086948509070973,0.38615313127681467,0.3831671759665699,0.3844220554854823,0.39125722838525434,0.40431000500016345,0.42302349315581356,0.44443040596164596,0.46535711676413394,0.4799028063495817,0.4807051083097176,0.4598938550348124,0.4097548419049366,0.3265553005333955,0.20980866736657106,0.06399772282438763,-0.1011361312632442,-0.27225857237855816,-0.43083213430690226,-0.5586090624853636,-0.639485479313058,-0.6621661175613008,-0.6234745115589814,-0.5250387408035111,-0.3768803679488475,-0.19464652351679324,0.0028317635490103694,0.19510772184699884,0.3668334401663219,0.5060900353862786,0.6066100869577815,0.6678296446593216,0.6928022253260959,0.6905160593390217,0.6705777268809092,0.642458323273611,0.6140221231352173,0.5895875894435623,0.5727338678644625,0.5635963917709393,0.5603776949645919,0.560214601611113,0.559310759590708,0.5561584445477111,0.5496690876072697,0.5400163402098433,0.5284306490816579,0.5160755059127345,0.5056212745779842,0.49861845148926687,0.4957435259165481,0.4966466965522026,0.4994947727272365,0.5031378708776317,0.5057763013688658,0.5060430427788735,0.0,0.0,0.0,0.0,0.0,0.0,0.0,0.0,0.0,0.0,0.0,0.0,0.0,0.0,0.0,0.0,0.0,0.0,0.0,0.0,0.0,0.0,0.0,0.0,0.0,0.0,0.0,0.0,0.0,0.0,0.0,0.0,0.0,0.0,0.0,0.0,0.0,0.0,0.0,0.0,0.0,0.0,0.0,0.0,0.0,0.0,0.0,0.0,0.0,0.0,0.0,0.0,0.0,0.0,0.0,0.0,0.0,0.0,0.0,0.0,0.0,0.0,0.0,0.0,0.0,0.0,0.0,0.0,0.0,0.0,0.0,0.0,0.0,0.0,0.0,0.0,0.0,0.0,0.0,0.0,0.0,0.0,0.0,0.0,0.0,0.0,0.0,0.0,0.0,0.0,0.0,0.0,0.0,0.0,0.0,0.0,0.0,0.0,0.0,0.0,0.0,0.0,0.0,0.0,0.0,0.0,0.0,0.0,0.0,0.0,0.0,0.0,0.0,0.0,0.0,0.0,0.0,0.0,0.0,0.0,0.0,0.0
0.49172218483142166,0.4954161901986742,0.4711878193599984,0.41894945920274335,0.3416745873605328,0.24543690135393748,0.1387864666349709,0.03132469053957998,-0.06619880177623472,-0.14444360350413654,-0.19631131124227874,-0.21784325692873244,-0.20929135901337573,-0.17305172040990757,-0.11488566957511612,-0.04245541257864015,0.03580140615590835,0.11123479439247556,0.17771955226156216,0.2307098104565489,0.26796743389224637,0.2894460692405491,0.29637705264555414,0.292253261816518,0.28077903160962814,0.26564805596324276,0.25002544235673385,0.23577928146104207,0.22463781709668995,0.21704628417094704,0.21266275380199476,0.21060481547291862,0.2094048120911406,0.20834788967738344,0.2067611480166365,0.2044011381836639,0.2014401175528651,0.19806423316193958,0.19512291637301363,0.1931254108757259,0.19226038819295235,0.19227541963281156,0.19227449829153115,0.19152425765736816,0.18910936832502342,0.18442380098904454,0.17746559348025476,0.1687165369089952,0.16028150026788632,0.15459847489323375,0.1544828574031586,0.16265576732769785,0.18075603496864548,0.210340769781803,0.250827696345602,0.29996785831174627,0.35407729018483003,0.4082852212190152,0.45806475092363075,0.4992178933197637,0.5287858016925583,0.5454988130419621,0.5498221418905178,0.5438690943534248,0.5309917263662612,0.5149183617188002,0.49894071160760106,0.4850449613617519,0.4742780052776036,0.46622979425189587,0.4595306631004848,0.45238261017324,0.4427538257733667,0.4300766761547728,0.4142355501693047,0.3959461540385414,0.37651070556331706,0.35708687435481234,0.3393668669771683,0.3241301898392679,0.3114298601488497,0.300638800953394,0.290375546846182,0.2798040937290642,0.2680106384140274,0.2545718279537084,0.2396840708036891,0.22384263454078066,0.20858026402450483,0.1952622858466801,0.1850668769704979,0.17872934065398413,0.17612211198463829,0.1771190407724856,0.18083359434214155,0.1861048881711487,0.19175226672122533,0.1965340859395585,0.2001805454880412,0.20257663974292545,0.20396044030379207,0.2047751927884665,0.20521386581756176,0.20593834716203566,0.20713686917235852,0.20876371348154668,0.21059883049639874,0.2119695461880974,0.21317357376116683,0.2141933142447792,0.21517830344119657,0.21642246820433103,0.21777510888074494,0.2202452754650943,0.2239815570162593,0.2288521711504613,0.23447226532562343,0.23981346437040219,0.24487209186411202,0.24902219672664522,0.2517018454744409,0.25252206244691583,0.2509177692736126,0.24759318534065977,0.2429077267499915,0.23734550472476143,0.23145398613105908,0.2254120635948507,0.2201394814446536,0.21589960177978304,0.21271161402198177,0.2103859098152023,0.20831100944593636,0.20650904396576414,0.20465986895101543,0.20253563358025203,0.20006528668469759,0.1968788447086436,0.19378809270385994,0.19128942812722294,0.18984656888579404,0.18974466355419287,0.19031647849222033,0.19197257905171286,0.19448979402038605,0.19755825178392764,0.20083585225211156,0.20372187174351428,0.20629431168687198,0.20846133081703647,0.21027081890376056,0.21192704095003023,0.21388625154198374,0.21651602902023168,0.2199790971289344,0.22424189349920604,0.2290759332700393,0.23397843715275118,0.23867147249010098,0.24260967371796338,0.24526670056480893,0.24622482559004838,0.2448915454490794,0.24168885411253366,0.23694979143161615,0.23120864790849302,0.22511008520482706,0.21895091023589175,0.21363521604296803,0.20946633995523134,0.20639572096201467,0.20399534481960568,0.20119063649907104,0.19742542008668018,0.19180984810979285,0.18373013245908026,0.1731453988059694,0.16052458804082964,0.0,0.0,0.0,0.0,0.0,0.0,0.0,0.0,0.0,0.0,0.0,0.0,0.0,0.0,0.0,0.0,0.0,0.0,0.0,0.0,0.0,0.0,0.0,0.0,0.0,0.0,0.0,0.0,0.0,0.0,0.0,0.0,0.0,0.0,0.0,0.0,0.0,0.0,0.0,0.0,0.0,0.0,0.0,0.0,0.0,0.0,0.0,0.0,0.0,0.0,0.0,0.0,0.0,0.0,0.0,0.0,0.0,0.0,0.0,0.0,0.0,0.0,0.0,0.0,0.0,0.0,0.0,0.0,0.0,0.0,0.0,0.0,0.0,0.0,0.0,0.0,0.0,0.0,0.0,0.0,0.0,0.0,0.0,0.0,0.0,0.0,0.0,0.0,0.0,0.0,0.0,0.0,0.0,0.0,0.0,0.0,0.0,0.0,0.0,0.0,0.0,0.0,0.0,0.0,0.0,0.0,0.0,0.0,0.0,0.0,0.0,0.0,0.0,0.0,0.0,0.0,0.0,0.0,0.0,0.0,0.0,0.0,0.4807051083097176,0.4598938550348124,0.4097548419049366,0.3265553005333955,0.20980866736657106,0.06399772282438763,-0.1011361312632442,-0.27225857237855816,-0.43083213430690226,-0.5586090624853636,-0.639485479313058,-0.6621661175613008,-0.6234745115589814,-0.5250387408035111,-0.3768803679488475,-0.19464652351679324,0.0028317635490103694,0.19510772184699884,0.3668334401663219,0.5060900353862786,0.6066100869577815,0.6678296446593216,0.6928022253260959,0.6905160593390217,0.6705777268809092,0.642458323273611,0.6140221231352173,0.5895875894435623,0.5727338678644625,0.5635963917709393,0.5603776949645919,0.560214601611113,0.559310759590708,0.5561584445477111,0.5496690876072697,0.5400163402098433,0.5284306490816579,0.5160755059127345,0.5056212745779842,0.49861845148926687,0.4957435259165481,0.4966466965522026,0.4994947727272365,0.5031378708776317,0.5057763013688658,0.5060430427788735,0.5034596998878793,0.4981060791582956,0.49270697776664985,0.4904312864418534,0.4950494921731447,0.5102727032235559,0.5383064594713522,0.5813395307003013,0.6388249373071113,0.7079513182131023,0.7838678132464879,0.8598708109935027,0.9297394571293784,0.9879658926671833,1.0309252651250418,1.05746292326942,1.0687196051016221,1.068133492519878,1.0608701608809628,1.0522131164401538,1.04617805361528,1.043927087480607,1.045082851830288,1.0467753329134086,1.0448257411628403,1.0348931839611402,1.0127415284390882,0.9780290458459616,0.9317572566166754,0.8770220744219139,0.8183468290072318,0.7598865108250049,0.706993243072972,0.6626695764738317,0.6279276003190376,0.6018004740533232,0.5810841995318689,0.5634512446308446,0.5459204168359248,0.5263814354961085,0.5040909436890234,0.4790851928213661,0.45419342187659184,0.4321442336579645,0.4155784314797472,0.40638141332472355,0.4045318464253598,0.41016971184422935,0.4215329754242453,0.43611215895685074,0.451271152985888,0.4640724771279013,0.4742977672515849,0.48213683869750795,0.488811439678121,0.4961608926470525,0.5051662334141118,0.5182670696056108,0.5361706855813394,0.5584630704707186,0.5836524142155399,0.6084594544064676,0.6315410930823229,0.6506446362456597,0.6641058397195105,0.6711439357840273,0.6708556532824123,0.6657375620286284,0.6574505900516704,0.6477541039176155,0.6381882422769245,0.6287811809762647,0.6213385573229662,0.6156126706783017,0.6106780815018632,0.6052325487698216,0.5969965472309119,0.5863296005483066,0.5728535811439159,0.5568059165552647,0.5390720530788433,0.5202033393788627,0.5029367667250131,0.4887847252784868,0.47870326659749,0.4729115573878652,0.4701569905609292,0.47020978718852746,0.4716865650727912,0.473194372663309,0.47370942892560425,0.47208219875374635,0.46972117420758774,0.4680437196918271,0.4689701158214163,0.4745073004633433,0.4854034993174323,0.5034497723368334,0.5286522148801003,0.5598378027776979,0.5947258734689879,0.6299233796511939,0.6624273201923365,0.6889219637753737,0.7068514640211755,0.7149444464746325,0.713760322235733,0.70493511025029,0.6907349508140873,0.6737115050003116,0.656235603540441,0.6398683698557127,0.6261316989223088,0.6150679963705168,0.6059317396365856,0.5975267606062495,0.587784408892463,0.5767384791848865,0.5639822383137993,0.5496161807003185,0.5342007938277312,0.5178452338223061,0.5025118665514179,0.48919001880981106,0.47855611743491816,0.47087482704921285,0.46524269753219794,0.46198942481627303,0.46029454183591545,0.4591409917124173,0.45755776926040237,0.4541886815171975,0.0,0.0,0.0,0.0,0.0,0.0,0.0,0.0,0.0,0.0,0.0,0.0,0.0,0.0,0.0,0.0,0.0,0.0,0.0,0.0,0.0,0.0,0.0,0.0,0.0,0.0,0.0,0.0,0.0,0.0,0.0,0.0,0.0,0.0,0.0,0.0,0.0,0.0,0.0,0.0,0.0,0.0,0.0,0.0,0.0,0.0,0.0,0.0,0.0,0.0,0.0,0.0,0.0,0.0,0.0,0.0,0.0,0.0,0.0,0.0,0.0,0.0,0.0,0.0,0.0,0.0,0.0,0.0,0.0,0.0,0.0,0.0,0.0,0.0,0.0,0.0,0.0,0.0,0.0,0.0,0.0,0.0,0.0,0.0,0.0,0.0,0.0,0.0,0.0,0.0,0.0,0.0,0.0,0.0,0.0,0.0,0.0,0.0,0.0,0.0,0.0,0.0,0.0,0.0,0.0,0.0,0.0,0.0,0.0,0.0,0.0,0.0,0.0,0.0,0.0,0.0,0.0,0.0,0.0,0.0,0.0,0.0
