0.9051344746926864,0.9444127808811622,0.9559625668722741,0.9366230308612709,0.8879753941934706,0.8146530788347704,0.724152685713671,0.6257056657183889,0.5283515468596954,0.44135223845124527,0.37141279357137835,0.32246642665008046,0.29544876456450375,0.28797755370033157,0.29681960271126007,0.3170334292027684,0.3433869214177891,0.3711399611957341,0.3959995665708287,0.4163169971035201,0.43125180963746734,0.4410850952629788,0.44683115782696453,0.44917899942360634,0.45012517594634377,0.4507630010998571,0.45174110806999046,0.45326107505324364,0.45453994078944254,0.45600225753969037,0.4574290676202661,0.4586717204255453,0.4596909922795228,0.4598956287030701,0.4601571713042493,0.4606840044725357,0.46159017152484094,0.4628588600297957,0.4636953721052906,0.46461873619118776,0.46545397671276406,0.4659935819112726,0.46602672778006865,0.46472043204573554,0.4627059774507887,0.46006143446858117,0.4569373356192243,0.45354926724014066,0.44937322949495073,0.44572325593155393,0.4429689859376878,0.4413738304217058,0.44107180670021273,0.4411169451771308,0.44262284800589047,0.445327548766164,0.44879396014312756,0.45253327137295485,0.45525487755371974,0.4577221868507008,0.45994293203961545,0.0,0.0,0.0,0.0,0.0,0.0,0.0,0.0,0.0,0.0,0.0,0.0,0.0,0.0,0.0,0.0,0.0,0.0,0.0,0.0,0.0,0.0,0.0,0.0,0.0,0.0,0.0,0.0,0.0,0.0,0.0,0.0,0.0,0.0,0.0,0.0,0.0,0.0,0.0,0.0,0.0,0.0,0.0,0.0,0.0,0.0,0.0,0.0,0.0,0.0,0.0,0.0,0.0,0.0,0.0,0.0,0.0,0.0,0.0,0.0,0.0,0.0,0.0,0.0,0.0,0.0,0.0,0.0,0.0,0.0,0.0,0.0,0.0,0.0,0.0,0.0,0.0,0.0,0.0,0.0,0.0,0.0,0.0,0.0,0.0,0.0,0.0,0.0,0.0,0.0,0.0,0.0,0.0,0.0,0.0,0.0,0.0,0.0,0.0,0.0,0.0,0.0,0.0,0.0,0.0,0.0,0.0,0.0,0.0,0.0,0.0,0.0,0.0,0.0,0.0,0.0,0.0,0.0,0.0,0.0,0.0,0.0,0.0,0.0,0.0,0.0,0.0,0.0,0.0,0.0,0.0,0.0,0.0,0.0,0.0,0.0,0.0,0.0,0.0,0.0,0.0,0.0,0.0,0.0,0.0,0.0,0.0,0.0,0.0,0.0,0.0,0.0,0.0,0.0,0.0,0.0,0.0,0.0,0.0,0.0,0.0,0.0,0.0,0.0,0.0,0.0,0.0,0.0,0.0,0.0,0.0,0.0,0.0,0.0,0.0,0.0,0.0,0.0,0.0,0.0,0.0,0.0,0.0,0.0,0.0,0.0,0.0,0.0,0.0,0.0,0.0,0.0,0.0,0.0,0.0,0.0,0.0,0.0,0.0,0.0,0.0,0.0,0.0,0.0,0.0,0.0,0.0,0.0,0.0,0.0,0.0,0.0,0.0,0.0,0.0,0.0,0.0,0.0,0.0,0.0,0.0,0.0,0.0,0.0,0.0,0.0,0.0,0.0,0.0,0.0,0.0,0.0,0.0,0.0,0.0,0.0,0.0,0.0,0.0,1.0670066193731884,1.122262985546642,1.1402565914062577,1.1179955034355793,1.0580818591936425,0.9673555470872983,0.8560498238208748,0.7361044242246323,0.618902251932399,0.5148047762759427,0.4307184183672534,0.36987903757428425,0.33195225704300696,0.31323451724907303,0.3092206805323584,0.3143472539231912,0.3234520031249828,0.33250675393021784,0.33842273213760066,0.34080175738166246,0.33995699008650815,0.3369464815599994,0.3330612508174287,0.32877368024745324,0.32547643136808346,0.32345988179126606,0.32256367930649826,0.3223265355661803,0.3215683920469064,0.3204182952611624,0.3185313039316052,0.3156549802293869,0.3115918203149319,0.3056131147959364,0.2982420244903302,0.2895345901937856,0.27969244237062507,0.2691186458831327,0.25785771674962044,0.2473154250750892,0.23830161396958163,0.23137206894150122,0.22664547145133354,0.22315209940856312,0.22072395355852464,0.21838978497357892,0.21524735149205965,0.2107934847730782,0.2044069923802023,0.1980091147772118,0.19313728604284003,0.1915693210570309,0.1949414980948229,0.20338331754175057,0.21853422073347778,0.23962863891291092,0.2649137997832754,0.2920529242357971,0.31773027856832714,0.34106207768676383,0.36086789490367044,0.0,0.0,0.0,0.0,0.0,0.0,0.0,0.0,0.0,0.0,0.0,0.0,0.0,0.0,0.0,0.0,0.0,0.0,0.0,0.0,0.0,0.0,0.0,0.0,0.0,0.0,0.0,0.0,0.0,0.0,0.0,0.0,0.0,0.0,0.0,0.0,0.0,0.0,0.0,0.0,0.0,0.0,0.0,0.0,0.0,0.0,0.0,0.0,0.0,0.0,0.0,0.0,0.0,0.0,0.0,0.0,0.0,0.0,0.0,0.0,0.0,0.0,0.0,0.0,0.0,0.0,0.0,0.0,0.0,0.0,0.0,0.0,0.0,0.0,0.0,0.0,0.0,0.0,0.0,0.0,0.0,0.0,0.0,0.0,0.0,0.0,0.0,0.0,0.0,0.0,0.0,0.0,0.0,0.0,0.0,0.0,0.0,0.0,0.0,0.0,0.0,0.0,0.0,0.0,0.0,0.0,0.0,0.0,0.0,0.0,0.0,0.0,0.0,0.0,0.0,0.0,0.0,0.0,0.0,0.0,0.0,0.0,0.0,0.0,0.0,0.0,0.0,0.0,0.0,0.0,0.0,0.0,0.0,0.0,0.0,0.0,0.0,0.0,0.0,0.0,0.0,0.0,0.0,0.0,0.0,0.0,0.0,0.0,0.0,0.0,0.0,0.0,0.0,0.0,0.0,0.0,0.0,0.0,0.0,0.0,0.0,0.0,0.0,0.0,0.0,0.0,0.0,0.0,0.0,0.0,0.0,0.0,0.0,0.0,0.0,0.0,0.0,0.0,0.0,0.0,0.0,0.0,0.0,0.0,0.0,0.0,0.0,0.0,0.0,0.0,0.0,0.0,0.0,0.0,0.0,0.0,0.0,0.0,0.0,0.0,0.0,0.0,0.0,0.0,0.0,0.0,0.0,0.0,0.0,0.0,0.0,0.0,0.0,0.0,0.0,0.0,0.0,0.0,0.0,0.0,0.0,0.0,0.0,0.0,0.0,0.0,0.0,0.0,0.0,0.0,0.0,0.0,0.0,0.0,0.0,0.0,0.0,0.0,0.0
0.3570007149319191,0.36227071591745025,0.3701219974828684,0.3784187013840663,0.385065999424716,0.3898499457249605,0.3925547421285385,0.393416941048944,0.3929453950999816,0.39122296437969345,0.3894367784565979,0.3879733281593132,0.3869652592327,0.38633164375786605,0.3853517198297168,0.3844145497938571,0.3832957947997728,0.381783977038682,0.37971789241575055,0.37650754896734995,0.3727790238709055,0.3685897567287118,0.36401238985172946,0.3591639324122109,0.3537252794905515,0.348626955743531,0.34421552623094004,0.3407994253652124,0.3386099724086712,0.33724300478704067,0.3373412432931613,0.3387393246499145,0.34108384852435514,0.3439026050705403,0.3461377752281959,0.34809185310269575,0.3494102425384524,0.3498227086231362,0.34919523773240946,0.3469621315292378,0.34412435307055683,0.340891652628091,0.3374390630893005,0.3339223380665104,0.33000785978017944,0.3264950492456365,0.32346373595726996,0.3208834033053339,0.31864943840061133,0.3162533298556368,0.31406295879750346,0.3119959755573814,0.30997808404922234,0.3079620456885008,0.30556875108130266,0.3033048475095717,0.3011915475569811,0.2992020335322,0.29727465297639016,0.29497345762894195,0.2927132478594921,0.0,0.0,0.0,0.0,0.0,0.0,0.0,0.0,0.0,0.0,0.0,0.0,0.0,0.0,0.0,0.0,0.0,0.0,0.0,0.0,0.0,0.0,0.0,0.0,0.0,0.0,0.0,0.0,0.0,0.0,0.0,0.0,0.0,0.0,0.0,0.0,0.0,0.0,0.0,0.0,0.0,0.0,0.0,0.0,0.0,0.0,0.0,0.0,0.0,0.0,0.0,0.0,0.0,0.0,0.0,0.0,0.0,0.0,0.0,0.0,0.0,0.0,0.0,0.0,0.0,0.0,0.0,0.0,0.0,0.0,0.0,0.0,0.0,0.0,0.0,0.0,0.0,0.0,0.0,0.0,0.0,0.0,0.0,0.0,0.0,0.0,0.0,0.0,0.0,0.0,0.0,0.0,0.0,0.0,0.0,0.0,0.0,0.0,0.0,0.0,0.0,0.0,0.0,0.0,0.0,0.0,0.0,0.0,0.0,0.0,0.0,0.0,0.0,0.0,0.0,0.0,0.0,0.0,0.0,0.0,0.0,0.0,0.0,0.0,0.0,0.0,0.0,0.0,0.0,0.0,0.0,0.0,0.0,0.0,0.0,0.0,0.0,0.0,0.0,0.0,0.0,0.0,0.0,0.0,0.0,0.0,0.0,0.0,0.0,0.0,0.0,0.0,0.0,0.0,0.0,0.0,0.0,0.0,0.0,0.0,0.0,0.0,0.0,0.0,0.0,0.0,0.0,0.0,0.0,0.0,0.0,0.0,0.0,0.0,0.0,0.0,0.0,0.0,0.0,0.0,0.0,0.0,0.0,0.0,0.0,0.0,0.0,0.0,0.0,0.0,0.0,0.0,0.0,0.0,0.0,0.0,0.0,0.0,0.0,0.0,0.0,0.0,0.0,0.0,0.0,0.0,0.0,0.0,0.0,0.0,0.0,0.0,0.0,0.0,0.0,0.0,0.0,0.0,0.0,0.0,0.0,0.0,0.0,0.0,0.0,0.0,0.0,0.0,0.0,0.0,0.0,0.0,0.0,0.0,0.0,0.0,0.0,0.0,0.0,0.29146801941782935,0.2892143439739621,0.28852684407423584,0.28760912427869834,0.2849203391750257,0.2808577257534692,0.27575157526049,0.27016133854681657,0.26462150949883073,0.2589630220154786,0.253886363738599,0.24930938385210655,0.24500821756364832,0.24074962055040533,0.23588948908230528,0.23102122277948078,0.2262380433851134,0.22156624597647487,0.21687773160197993,0.21136445019683844,0.2051994694447846,0.19799214043839702,0.18950468647857044,0.1798356800025757,0.16904384981827897,0.15871023260421221,0.150114718532091,0.14450171838822753,0.14279362840317145,0.14488227733384512,0.15107286414338555,0.16048700456502688,0.17179762959018238,0.1835542152968793,0.19398162523979334,0.2031004699325107,0.21082494263907123,0.21761271732734105,0.2243148021905871,0.2312972098287244,0.24028216483207523,0.2516729415421857,0.2652559867037273,0.28026441071946245,0.2950560318735509,0.30904034297355665,0.32106908933680534,0.3302699775189306,0.3362140192483377,0.338597439606655,0.3384246103393823,0.3365664642371023,0.33396317391048047,0.33142506234160696,0.329131705534652,0.3277096663434749,0.32706185733801457,0.3268477727770493,0.3266361054348763,0.3257327889867218,0.324340983205846,0.0,0.0,0.0,0.0,0.0,0.0,0.0,0.0,0.0,0.0,0.0,0.0,0.0,0.0,0.0,0.0,0.0,0.0,0.0,0.0,0.0,0.0,0.0,0.0,0.0,0.0,0.0,0.0,0.0,0.0,0.0,0.0,0.0,0.0,0.0,0.0,0.0,0.0,0.0,0.0,0.0,0.0,0.0,0.0,0.0,0.0,0.0,0.0,0.0,0.0,0.0,0.0,0.0,0.0,0.0,0.0,0.0,0.0,0.0,0.0,0.0,0.0,0.0,0.0,0.0,0.0,0.0,0.0,0.0,0.0,0.0,0.0,0.0,0.0,0.0,0.0,0.0,0.0,0.0,0.0,0.0,0.0,0.0,0.0,0.0,0.0,0.0,0.0,0.0,0.0,0.0,0.0,0.0,0.0,0.0,0.0,0.0,0.0,0.0,0.0,0.0,0.0,0.0,0.0,0.0,0.0,0.0,0.0,0.0,0.0,0.0,0.0,0.0,0.0,0.0,0.0,0.0,0.0,0.0,0.0,0.0,0.0,0.0,0.0,0.0,0.0,0.0,0.0,0.0,0.0,0.0,0.0,0.0,0.0,0.0,0.0,0.0,0.0,0.0,0.0,0.0,0.0,0.0,0.0,0.0,0.0,0.0,0.0,0.0,0.0,0.0,0.0,0.0,0.0,0.0,0.0,0.0,0.0,0.0,0.0,0.0,0.0,0.0,0.0,0.0,0.0,0.0,0.0,0.0,0.0,0.0,0.0,0.0,0.0,0.0,0.0,0.0,0.0,0.0,0.0,0.0,0.0,0.0,0.0,0.0,0.0,0.0,0.0,0.0,0.0,0.0,0.0,0.0,0.0,0.0,0.0,0.0,0.0,0.0,0.0,0.0,0.0,0.0,0.0,0.0,0.0,0.0,0.0,0.0,0.0,0.0,0.0,0.0,0.0,0.0,0.0,0.0,0.0,0.0,0.0,0.0,0.0,0.0,0.0,0.0,0.0,0.0,0.0,0.0,0.0,0.0,0.0,0.0,0.0,0.0,0.0,0.0,0.0,0.0
0.5847963967526713,0.5673923102647201,0.5273292787786982,0.4682883354859961,0.396131274419491,0.3180093991561242,0.2411193638071468,0.1722794854489076,0.11631571905841219,0.075847547122232,0.05122240155957718,0.040652245081958714,0.041375215245055955,0.04964102351076023,0.06166318258974951,0.07420668153458407,0.08480992680822562,0.09244445592155211,0.09676767455273923,0.09811156739246604,0.09719096150959095,0.09468795268833116,0.09151593703760773,0.08812052324441172,0.08468673799870247,0.08123272684588885,0.07760919012786166,0.07404684161377313,0.07066634837568685,0.06766480871206604,0.06527449218218677,0.06357798995138689,0.06284763625963849,0.0630077512083314,0.0638166916423746,0.06492885089774648,0.06587271485562717,0.06650911311455002,0.06659213664286573,0.06596826949803045,0.0645832096133062,0.06237210407939161,0.05958951024200046,0.05630878078724682,0.05260653518373502,0.04859964739792643,0.04430021560993645,0.04032272946669811,0.03691298834743033,0.03428479547649417,0.03261608518254666,0.031763640709373694,0.032266634238647555,0.033899289889222126,0.03625014754262332,0.038845161251104245,0.041169059081069374,0.04315536777597324,0.04455193782929222,0.04520253435845524,0.04507423731966182,0.0,0.0,0.0,0.0,0.0,0.0,0.0,0.0,0.0,0.0,0.0,0.0,0.0,0.0,0.0,0.0,0.0,0.0,0.0,0.0,0.0,0.0,0.0,0.0,0.0,0.0,0.0,0.0,0.0,0.0,0.0,0.0,0.0,0.0,0.0,0.0,0.0,0.0,0.0,0.0,0.0,0.0,0.0,0.0,0.0,0.0,0.0,0.0,0.0,0.0,0.0,0.0,0.0,0.0,0.0,0.0,0.0,0.0,0.0,0.0,0.0,0.0,0.0,0.0,0.0,0.0,0.0,0.0,0.0,0.0,0.0,0.0,0.0,0.0,0.0,0.0,0.0,0.0,0.0,0.0,0.0,0.0,0.0,0.0,0.0,0.0,0.0,0.0,0.0,0.0,0.0,0.0,0.0,0.0,0.0,0.0,0.0,0.0,0.0,0.0,0.0,0.0,0.0,0.0,0.0,0.0,0.0,0.0,0.0,0.0,0.0,0.0,0.0,0.0,0.0,0.0,0.0,0.0,0.0,0.0,0.0,0.0,0.0,0.0,0.0,0.0,0.0,0.0,0.0,0.0,0.0,0.0,0.0,0.0,0.0,0.0,0.0,0.0,0.0,0.0,0.0,0.0,0.0,0.0,0.0,0.0,0.0,0.0,0.0,0.0,0.0,0.0,0.0,0.0,0.0,0.0,0.0,0.0,0.0,0.0,0.0,0.0,0.0,0.0,0.0,0.0,0.0,0.0,0.0,0.0,0.0,0.0,0.0,0.0,0.0,0.0,0.0,0.0,0.0,0.0,0.0,0.0,0.0,0.0,0.0,0.0,0.0,0.0,0.0,0.0,0.0,0.0,0.0,0.0,0.0,0.0,0.0,0.0,0.0,0.0,0.0,0.0,0.0,0.0,0.0,0.0,0.0,0.0,0.0,0.0,0.0,0.0,0.0,0.0,0.0,0.0,0.0,0.0,0.0,0.0,0.0,0.0,0.0,0.0,0.0,0.0,0.0,0.0,0.0,0.0,0.0,0.0,0.0,0.0,0.0,0.0,0.0,0.0,0.0,0.7703076001331215,0.7483577893817726,0.6973967854705474,0.6225741907472396,0.5317446654769297,0.434170578064285,0.3388762441624649,0.2538724581950427,0.1843813424313217,0.13264130569349608,0.09803355599544845,0.07749818369777538,0.06715656465330885,0.06249534144867288,0.05955684493978395,0.05557889875492018,0.04906000008029103,0.04036914197606075,0.03053692520030876,0.021006960242745783,0.013124241514391895,0.007538870922677639,0.004742633812996983,0.004286644995445489,0.005266105730840132,0.006633281894535076,0.007293436353903736,0.006986359759080045,0.00556874058070767,0.0031904077191849526,0.00014232227467825988,-0.0035010492820975844,-0.007343114593783731,-0.011406762486848151,-0.015816888888445776,-0.02065716364743748,-0.02600880650928566,-0.03128337914972143,-0.03596928924188421,-0.03950935090324399,-0.04145664956955322,-0.04177395177367819,-0.04035828612738732,-0.03771246595314687,-0.03455199905602721,-0.03157283846452818,-0.029495589025977827,-0.02788206803646021,-0.026443190950663015,-0.024615682019877776,-0.021689027359503135,-0.017391390316888466,-0.010584041795142966,-0.0013846116189041415,0.009579192325006895,0.021361764375244282,0.03274387794646352,0.04323651810245946,0.05217443054915163,0.05921903578472099,0.06441255610999169,0.0,0.0,0.0,0.0,0.0,0.0,0.0,0.0,0.0,0.0,0.0,0.0,0.0,0.0,0.0,0.0,0.0,0.0,0.0,0.0,0.0,0.0,0.0,0.0,0.0,0.0,0.0,0.0,0.0,0.0,0.0,0.0,0.0,0.0,0.0,0.0,0.0,0.0,0.0,0.0,0.0,0.0,0.0,0.0,0.0,0.0,0.0,0.0,0.0,0.0,0.0,0.0,0.0,0.0,0.0,0.0,0.0,0.0,0.0,0.0,0.0,0.0,0.0,0.0,0.0,0.0,0.0,0.0,0.0,0.0,0.0,0.0,0.0,0.0,0.0,0.0,0.0,0.0,0.0,0.0,0.0,0.0,0.0,0.0,0.0,0.0,0.0,0.0,0.0,0.0,0.0,0.0,0.0,0.0,0.0,0.0,0.0,0.0,0.0,0.0,0.0,0.0,0.0,0.0,0.0,0.0,0.0,0.0,0.0,0.0,0.0,0.0,0.0,0.0,0.0,0.0,0.0,0.0,0.0,0.0,0.0,0.0,0.0,0.0,0.0,0.0,0.0,0.0,0.0,0.0,0.0,0.0,0.0,0.0,0.0,0.0,0.0,0.0,0.0,0.0,0.0,0.0,0.0,0.0,0.0,0.0,0.0,0.0,0.0,0.0,0.0,0.0,0.0,0.0,0.0,0.0,0.0,0.0,0.0,0.0,0.0,0.0,0.0,0.0,0.0,0.0,0.0,0.0,0.0,0.0,0.0,0.0,0.0,0.0,0.0,0.0,0.0,0.0,0.0,0.0,0.0,0.0,0.0,0.0,0.0,0.0,0.0,0.0,0.0,0.0,0.0,0.0,0.0,0.0,0.0,0.0,0.0,0.0,0.0,0.0,0.0,0.0,0.0,0.0,0.0,0.0,0.0,0.0,0.0,0.0,0.0,0.0,0.0,0.0,0.0,0.0,0.0,0.0,0.0,0.0,0.0,0.0,0.0,0.0,0.0,0.0,0.0,0.0,0.0,0.0,0.0,0.0,0.0,0.0,0.0,0.0,0.0,0.0,0.0
0.34542039338961367,0.3549038686575843,0.33820490792886265,0.2968848051236774,0.23525302937220907,0.15986261897463352,0.07848922193487375,-0.0013529911808967455,-0.072632663431285,-0.13040992366955048,-0.17217284421221876,-0.19792542478783684,-0.2101881850224172,-0.21223891212501145,-0.20807853882806446,-0.20139888906163741,-0.19499439157653928,-0.19086142182051857,-0.18914976709154074,-0.1893458936372739,-0.19056489434882834,-0.19206335836524172,-0.19397211665248762,-0.19621790398756014,-0.19921041350406105,-0.2033250564372715,-0.20861007104526805,-0.2150351328315756,-0.22127501429438878,-0.22586683898002458,-0.2274303875042002,-0.22515678372529438,-0.21960400332044389,-0.2114241243141913,-0.20206252913530318,-0.1930761038322987,-0.1856139057865039,-0.18053662522375427,-0.17653931720040558,-0.17140135449855598,-0.1622019677994699,-0.14607102784771342,-0.12165034320704224,-0.0877265738605912,-0.04486664183536722,0.004905597044598489,0.058405149338733975,0.11114964810989551,0.16007075143269395,0.2024537555615089,0.23679020044620167,0.26288132652518137,0.2810013082860113,0.293666512453802,0.30315338341349557,0.3116090965031685,0.3206447302649596,0.33056646868297296,0.341891466993734,0.35419682064428765,0.3666787846306275,0.0,0.0,0.0,0.0,0.0,0.0,0.0,0.0,0.0,0.0,0.0,0.0,0.0,0.0,0.0,0.0,0.0,0.0,0.0,0.0,0.0,0.0,0.0,0.0,0.0,0.0,0.0,0.0,0.0,0.0,0.0,0.0,0.0,0.0,0.0,0.0,0.0,0.0,0.0,0.0,0.0,0.0,0.0,0.0,0.0,0.0,0.0,0.0,0.0,0.0,0.0,0.0,0.0,0.0,0.0,0.0,0.0,0.0,0.0,0.0,0.0,0.0,0.0,0.0,0.0,0.0,0.0,0.0,0.0,0.0,0.0,0.0,0.0,0.0,0.0,0.0,0.0,0.0,0.0,0.0,0.0,0.0,0.0,0.0,0.0,0.0,0.0,0.0,0.0,0.0,0.0,0.0,0.0,0.0,0.0,0.0,0.0,0.0,0.0,0.0,0.0,0.0,0.0,0.0,0.0,0.0,0.0,0.0,0.0,0.0,0.0,0.0,0.0,0.0,0.0,0.0,0.0,0.0,0.0,0.0,0.0,0.0,0.0,0.0,0.0,0.0,0.0,0.0,0.0,0.0,0.0,0.0,0.0,0.0,0.0,0.0,0.0,0.0,0.0,0.0,0.0,0.0,0.0,0.0,0.0,0.0,0.0,0.0,0.0,0.0,0.0,0.0,0.0,0.0,0.0,0.0,0.0,0.0,0.0,0.0,0.0,0.0,0.0,0.0,0.0,0.0,0.0,0.0,0.0,0.0,0.0,0.0,0.0,0.0,0.0,0.0,0.0,0.0,0.0,0.0,0.0,0.0,0.0,0.0,0.0,0.0,0.0,0.0,0.0,0.0,0.0,0.0,0.0,0.0,0.0,0.0,0.0,0.0,0.0,0.0,0.0,0.0,0.0,0.0,0.0,0.0,0.0,0.0,0.0,0.0,0.0,0.0,0.0,0.0,0.0,0.0,0.0,0.0,0.0,0.0,0.0,0.0,0.0,0.0,0.0,0.0,0.0,0.0,0.0,0.0,0.0,0.0,0.0,0.0,0.0,0.0,0.0,0.0,0.0,0.6979815120925337,0.7150092426840081,0.6909305052766017,0.6285521407140138,0.5350796071039676,0.4210849772737468,0.29875277208146445,0.17963226797231194,0.07381973235507819,-0.012127325861788336,-0.07554420016678201,-0.11750369852107921,-0.1423896153206835,-0.15546213393524663,-0.16247304376969918,-0.16819929706394202,-0.175685003501095,-0.18642903425747692,-0.19944463226390244,-0.21293513332633981,-0.2248881862326177,-0.23386630848111076,-0.23992449739621946,-0.24338999176260265,-0.24553743065597983,-0.24779276292727692,-0.2511821942019447,-0.2564396569361136,-0.2624455148603625,-0.26759625362762757,-0.2700712052717849,-0.2684980799227787,-0.26303954057365764,-0.2539419508806404,-0.24259179386947252,-0.23074230715848282,-0.21992474555710348,-0.2115743314141051,-0.20472669895227624,-0.19751678676740111,-0.18728665465407907,-0.1713514111914283,-0.14858870440962402,-0.11773070168419367,-0.07930226235114946,-0.035148870551010014,0.011907054197758966,0.057815383342992875,0.10046060893858669,0.13791287560193047,0.1693744078512427,0.19516551958694622,0.21562790530205042,0.2334626428948922,0.25039332628497785,0.2677162763134381,0.2860913502516071,0.3049225831697189,0.32426190761551354,0.3433081056238164,0.36115422364894983,0.0,0.0,0.0,0.0,0.0,0.0,0.0,0.0,0.0,0.0,0.0,0.0,0.0,0.0,0.0,0.0,0.0,0.0,0.0,0.0,0.0,0.0,0.0,0.0,0.0,0.0,0.0,0.0,0.0,0.0,0.0,0.0,0.0,0.0,0.0,0.0,0.0,0.0,0.0,0.0,0.0,0.0,0.0,0.0,0.0,0.0,0.0,0.0,0.0,0.0,0.0,0.0,0.0,0.0,0.0,0.0,0.0,0.0,0.0,0.0,0.0,0.0,0.0,0.0,0.0,0.0,0.0,0.0,0.0,0.0,0.0,0.0,0.0,0.0,0.0,0.0,0.0,0.0,0.0,0.0,0.0,0.0,0.0,0.0,0.0,0.0,0.0,0.0,0.0,0.0,0.0,0.0,0.0,0.0,0.0,0.0,0.0,0.0,0.0,0.0,0.0,0.0,0.0,0.0,0.0,0.0,0.0,0.0,0.0,0.0,0.0,0.0,0.0,0.0,0.0,0.0,0.0,0.0,0.0,0.0,0.0,0.0,0.0,0.0,0.0,0.0,0.0,0.0,0.0,0.0,0.0,0.0,0.0,0.0,0.0,0.0,0.0,0.0,0.0,0.0,0.0,0.0,0.0,0.0,0.0,0.0,0.0,0.0,0.0,0.0,0.0,0.0,0.0,0.0,0.0,0.0,0.0,0.0,0.0,0.0,0.0,0.0,0.0,0.0,0.0,0.0,0.0,0.0,0.0,0.0,0.0,0.0,0.0,0.0,0.0,0.0,0.0,0.0,0.0,0.0,0.0,0.0,0.0,0.0,0.0,0.0,0.0,0.0,0.0,0.0,0.0,0.0,0.0,0.0,0.0,0.0,0.0,0.0,0.0,0.0,0.0,0.0,0.0,0.0,0.0,0.0,0.0,0.0,0.0,0.0,0.0,0.0,0.0,0.0,0.0,0.0,0.0,0.0,0.0,0.0,0.0,0.0,0.0,0.0,0.0,0.0,0.0,0.0,0.0,0.0,0.0,0.0,0.0,0.0,0.0,0.0,0.0,0.0,0.0
0.293666512453802,0.30315338341349557,0.3116090965031685,0.3206447302649596,0.33056646868297296,0.341891466993734,0.35419682064428765,0.3666787846306275,0.3784081340047378,0.3882087120964522,0.3958472508766477,0.4015626538838262,0.4060327481170461,0.41012306648322044,0.4142687496460389,0.41920933526111304,0.4253892115874752,0.43297413830331943,0.4418379989617031,0.4512802984413521,0.46098149948658135,0.47063525123107525,0.4800303972631566,0.4890369083083709,0.497315693434881,0.505217782603284,0.5134903826558215,0.523326701123517,0.5362358176550386,0.5534892779550686,0.5765234640976741,0.6061727609890403,0.6422363693202794,0.6831386202554188,0.7255463890213123,0.7655387834163428,0.7987596742298285,0.8212258995370184,0.830041422855799,0.8235912060481345,0.802769639973698,0.7702794889444354,0.7302136821270914,0.6872591082521085,0.6454259913383006,0.6086119999867731,0.579142757583913,0.5579045937185427,0.544476793648418,0.5369832696648634,0.5340982931105147,0.5340012615629663,0.5351307238335241,0.536342426661137,0.5364017968513908,0.5355744215693011,0.5338661606758882,0.5313793614559879,0.5282080596738561,0.52383184235935,0.5189052801696034,0.0,0.0,0.0,0.0,0.0,0.0,0.0,0.0,0.0,0.0,0.0,0.0,0.0,0.0,0.0,0.0,0.0,0.0,0.0,0.0,0.0,0.0,0.0,0.0,0.0,0.0,0.0,0.0,0.0,0.0,0.0,0.0,0.0,0.0,0.0,0.0,0.0,0.0,0.0,0.0,0.0,0.0,0.0,0.0,0.0,0.0,0.0,0.0,0.0,0.0,0.0,0.0,0.0,0.0,0.0,0.0,0.0,0.0,0.0,0.0,0.0,0.0,0.0,0.0,0.0,0.0,0.0,0.0,0.0,0.0,0.0,0.0,0.0,0.0,0.0,0.0,0.0,0.0,0.0,0.0,0.0,0.0,0.0,0.0,0.0,0.0,0.0,0.0,0.0,0.0,0.0,0.0,0.0,0.0,0.0,0.0,0.0,0.0,0.0,0.0,0.0,0.0,0.0,0.0,0.0,0.0,0.0,0.0,0.0,0.0,0.0,0.0,0.0,0.0,0.0,0.0,0.0,0.0,0.0,0.0,0.0,0.0,0.0,0.0,0.0,0.0,0.0,0.0,0.0,0.0,0.0,0.0,0.0,0.0,0.0,0.0,0.0,0.0,0.0,0.0,0.0,0.0,0.0,0.0,0.0,0.0,0.0,0.0,0.0,0.0,0.0,0.0,0.0,0.0,0.0,0.0,0.0,0.0,0.0,0.0,0.0,0.0,0.0,0.0,0.0,0.0,0.0,0.0,0.0,0.0,0.0,0.0,0.0,0.0,0.0,0.0,0.0,0.0,0.0,0.0,0.0,0.0,0.0,0.0,0.0,0.0,0.0,0.0,0.0,0.0,0.0,0.0,0.0,0.0,0.0,0.0,0.0,0.0,0.0,0.0,0.0,0.0,0.0,0.0,0.0,0.0,0.0,0.0,0.0,0.0,0.0,0.0,0.0,0.0,0.0,0.0,0.0,0.0,0.0,0.0,0.0,0.0,0.0,0.0,0.0,0.0,0.0,0.0,0.0,0.0,0.0,0.0,0.0,0.0,0.0,0.0,0.0,0.0,0.0,0.2334626428948922,0.25039332628497785,0.2677162763134381,0.2860913502516071,0.3049225831697189,0.32426190761551354,0.3433081056238164,0.36115422364894983,0.377017180916268,0.39010209442872834,0.40054324435503724,0.40885638459085616,0.4158727445815567,0.42249856805950703,0.42922493268757467,0.43673283650450556,0.4455040739552093,0.45586399777808495,0.46797995520274616,0.4816158098732635,0.4967173912261398,0.5131671516262875,0.5306811975220848,0.5487409092429059,0.5664321269182021,0.583147449663766,0.5987610175003609,0.6138030485899652,0.6295018632830656,0.6474264745716252,0.6694871778511238,0.6973298201603463,0.7315797689018915,0.771262640438276,0.8133441349394903,0.8535043375619947,0.8866366982510343,0.9077652557867278,0.9130234175934864,0.9002079185861672,0.8699154136424336,0.8251629707143996,0.7708443517833297,0.7127609469108859,0.6561652351328017,0.6058756022132974,0.5648105868213954,0.5339531651119243,0.5124984762282853,0.4978618491467484,0.4877999501797029,0.47975871822991695,0.4717755320919237,0.4627551144005923,0.45193829173413774,0.44047619605226207,0.4294571568724557,0.42001943448230145,0.41301175257289935,0.40812926205525324,0.4059087621356349,0.0,0.0,0.0,0.0,0.0,0.0,0.0,0.0,0.0,0.0,0.0,0.0,0.0,0.0,0.0,0.0,0.0,0.0,0.0,0.0,0.0,0.0,0.0,0.0,0.0,0.0,0.0,0.0,0.0,0.0,0.0,0.0,0.0,0.0,0.0,0.0,0.0,0.0,0.0,0.0,0.0,0.0,0.0,0.0,0.0,0.0,0.0,0.0,0.0,0.0,0.0,0.0,0.0,0.0,0.0,0.0,0.0,0.0,0.0,0.0,0.0,0.0,0.0,0.0,0.0,0.0,0.0,0.0,0.0,0.0,0.0,0.0,0.0,0.0,0.0,0.0,0.0,0.0,0.0,0.0,0.0,0.0,0.0,0.0,0.0,0.0,0.0,0.0,0.0,0.0,0.0,0.0,0.0,0.0,0.0,0.0,0.0,0.0,0.0,0.0,0.0,0.0,0.0,0.0,0.0,0.0,0.0,0.0,0.0,0.0,0.0,0.0,0.0,0.0,0.0,0.0,0.0,0.0,0.0,0.0,0.0,0.0,0.0,0.0,0.0,0.0,0.0,0.0,0.0,0.0,0.0,0.0,0.0,0.0,0.0,0.0,0.0,0.0,0.0,0.0,0.0,0.0,0.0,0.0,0.0,0.0,0.0,0.0,0.0,0.0,0.0,0.0,0.0,0.0,0.0,0.0,0.0,0.0,0.0,0.0,0.0,0.0,0.0,0.0,0.0,0.0,0.0,0.0,0.0,0.0,0.0,0.0,0.0,0.0,0.0,0.0,0.0,0.0,0.0,0.0,0.0,0.0,0.0,0.0,0.0,0.0,0.0,0.0,0.0,0.0,0.0,0.0,0.0,0.0,0.0,0.0,0.0,0.0,0.0,0.0,0.0,0.0,0.0,0.0,0.0,0.0,0.0,0.0,0.0,0.0,0.0,0.0,0.0,0.0,0.0,0.0,0.0,0.0,0.0,0.0,0.0,0.0,0.0,0.0,0.0,0.0,0.0,0.0,0.0,0.0,0.0,0.0,0.0,0.0,0.0,0.0,0.0,0.0,0.0
0.6844950901563827,0.6933797354215223,0.6726372563761951,0.6236618588217634,0.5510257337598513,0.46203914921584766,0.36562676042736925,0.27077576343985904,0.18591823865678525,0.1170955586287957,0.06760060385937929,0.037873785433216296,0.025649149003118935,0.027401682043898264,0.0384316853901938,0.05401743711628123,0.07015028493693622,0.08378992276921399,0.09372162902342746,0.09966889877687833,0.10222054251793225,0.1024267844406561,0.10120923008480788,0.09973749871828222,0.09855889056420501,0.09782448845588203,0.09739750495994733,0.0968273488965642,0.09611005121268999,0.09511951578248183,0.09384640973630833,0.09236822547923856,0.09061966533180402,0.0888889258041892,0.0871827976745885,0.08543864963920433,0.08358097808110362,0.08142005954303644,0.0792644020361709,0.07729489969390597,0.07573582656382892,0.07479373068296868,0.07442007539329284,0.07483784383656486,0.07587836222395906,0.07724878186421252,0.07862786512821429,0.07947134556809306,0.08016921487413273,0.08077262388567966,0.08144979634227156,0.0824619995734599,0.08366440557093474,0.085992721539868,0.08942908909679777,0.0937002469042398,0.09837829775953527,0.10273437400060147,0.10676774823719858,0.1101570042784803,0.11268858722265625,0.0,0.0,0.0,0.0,0.0,0.0,0.0,0.0,0.0,0.0,0.0,0.0,0.0,0.0,0.0,0.0,0.0,0.0,0.0,0.0,0.0,0.0,0.0,0.0,0.0,0.0,0.0,0.0,0.0,0.0,0.0,0.0,0.0,0.0,0.0,0.0,0.0,0.0,0.0,0.0,0.0,0.0,0.0,0.0,0.0,0.0,0.0,0.0,0.0,0.0,0.0,0.0,0.0,0.0,0.0,0.0,0.0,0.0,0.0,0.0,0.0,0.0,0.0,0.0,0.0,0.0,0.0,0.0,0.0,0.0,0.0,0.0,0.0,0.0,0.0,0.0,0.0,0.0,0.0,0.0,0.0,0.0,0.0,0.0,0.0,0.0,0.0,0.0,0.0,0.0,0.0,0.0,0.0,0.0,0.0,0.0,0.0,0.0,0.0,0.0,0.0,0.0,0.0,0.0,0.0,0.0,0.0,0.0,0.0,0.0,0.0,0.0,0.0,0.0,0.0,0.0,0.0,0.0,0.0,0.0,0.0,0.0,0.0,0.0,0.0,0.0,0.0,0.0,0.0,0.0,0.0,0.0,0.0,0.0,0.0,0.0,0.0,0.0,0.0,0.0,0.0,0.0,0.0,0.0,0.0,0.0,0.0,0.0,0.0,0.0,0.0,0.0,0.0,0.0,0.0,0.0,0.0,0.0,0.0,0.0,0.0,0.0,0.0,0.0,0.0,0.0,0.0,0.0,0.0,0.0,0.0,0.0,0.0,0.0,0.0,0.0,0.0,0.0,0.0,0.0,0.0,0.0,0.0,0.0,0.0,0.0,0.0,0.0,0.0,0.0,0.0,0.0,0.0,0.0,0.0,0.0,0.0,0.0,0.0,0.0,0.0,0.0,0.0,0.0,0.0,0.0,0.0,0.0,0.0,0.0,0.0,0.0,0.0,0.0,0.0,0.0,0.0,0.0,0.0,0.0,0.0,0.0,0.0,0.0,0.0,0.0,0.0,0.0,0.0,0.0,0.0,0.0,0.0,0.0,0.0,0.0,0.0,0.0,0.0,1.0099582977969457,1.0299365140640184,1.0101513031392684,0.9539430485718339,0.8688086499501418,0.7652533482815213,0.654930980756073,0.5484728162105789,0.45461621069134567,0.37831503350683543,0.3207706482878723,0.2799254474481278,0.2512245707531037,0.22987688182833135,0.2111010844379158,0.19142217260432057,0.16917908405596457,0.14425060102089163,0.11853964618145359,0.09431313617279596,0.07376932792084656,0.05843272066380134,0.04854524200651913,0.04390611039068159,0.04319024618828246,0.044651663874957954,0.04657571543112572,0.047385970834350415,0.04665474267871976,0.044188575517982186,0.04013088381253688,0.034718710198450096,0.02783850647574403,0.019731226097194153,0.010201744939911281,-0.0009065433481814454,-0.013458489981152606,-0.027077789134746323,-0.04027332886579062,-0.051471637123169836,-0.05903374717906332,-0.061635690160755305,-0.058874165909002865,-0.05061452276336719,-0.03790600564118458,-0.022448184719323562,-0.0061870327923137505,0.008690483681215277,0.021737904893426408,0.03254355259838198,0.04142000654331623,0.0492616245761278,0.05660433527398376,0.0656039712034057,0.07680940065029919,0.0900691332407387,0.10464615790965648,0.11899791064679616,0.13265572332351033,0.14452535692625523,0.1537799362577863,0.0,0.0,0.0,0.0,0.0,0.0,0.0,0.0,0.0,0.0,0.0,0.0,0.0,0.0,0.0,0.0,0.0,0.0,0.0,0.0,0.0,0.0,0.0,0.0,0.0,0.0,0.0,0.0,0.0,0.0,0.0,0.0,0.0,0.0,0.0,0.0,0.0,0.0,0.0,0.0,0.0,0.0,0.0,0.0,0.0,0.0,0.0,0.0,0.0,0.0,0.0,0.0,0.0,0.0,0.0,0.0,0.0,0.0,0.0,0.0,0.0,0.0,0.0,0.0,0.0,0.0,0.0,0.0,0.0,0.0,0.0,0.0,0.0,0.0,0.0,0.0,0.0,0.0,0.0,0.0,0.0,0.0,0.0,0.0,0.0,0.0,0.0,0.0,0.0,0.0,0.0,0.0,0.0,0.0,0.0,0.0,0.0,0.0,0.0,0.0,0.0,0.0,0.0,0.0,0.0,0.0,0.0,0.0,0.0,0.0,0.0,0.0,0.0,0.0,0.0,0.0,0.0,0.0,0.0,0.0,0.0,0.0,0.0,0.0,0.0,0.0,0.0,0.0,0.0,0.0,0.0,0.0,0.0,0.0,0.0,0.0,0.0,0.0,0.0,0.0,0.0,0.0,0.0,0.0,0.0,0.0,0.0,0.0,0.0,0.0,0.0,0.0,0.0,0.0,0.0,0.0,0.0,0.0,0.0,0.0,0.0,0.0,0.0,0.0,0.0,0.0,0.0,0.0,0.0,0.0,0.0,0.0,0.0,0.0,0.0,0.0,0.0,0.0,0.0,0.0,0.0,0.0,0.0,0.0,0.0,0.0,0.0,0.0,0.0,0.0,0.0,0.0,0.0,0.0,0.0,0.0,0.0,0.0,0.0,0.0,0.0,0.0,0.0,0.0,0.0,0.0,0.0,0.0,0.0,0.0,0.0,0.0,0.0,0.0,0.0,0.0,0.0,0.0,0.0,0.0,0.0,0.0,0.0,0.0,0.0,0.0,0.0,0.0,0.0,0.0,0.0,0.0,0.0,0.0,0.0,0.0,0.0,0.0,0.0
-0.020760986277876172,-0.01157055179269923,-0.0023419907811968884,0.005406537614658211,0.011103483382021547,0.014890362995158907,0.017417731616947048,0.01954955972700482,0.022005197582065643,0.02537182720301366,0.029848573264323462,0.03528249230888306,0.041252912573616636,0.04712645006453683,0.052451950147866674,0.05690042075375,0.06036675310364842,0.06295626542022845,0.06482831477674399,0.06637183027480968,0.067903034159935,0.06964097261829276,0.07166038974546414,0.0737289860186632,0.07580549525935718,0.07771767200497615,0.07929101795228825,0.08036451407069983,0.0805766155011755,0.08004577074856199,0.07885482797196487,0.07717796895865123,0.07525099794349727,0.07310946457353087,0.07129659773220154,0.07007551647787195,0.0696470512650831,0.07013748181629471,0.07136150663213525,0.07363346471642772,0.0767821398261071,0.08052823590561214,0.08454570923246024,0.08838781523576833,0.09196020648488963,0.09502927996705639,0.0974040725354094,0.09895393664862577,0.09959908902664154,0.0993853197178818,0.09846103067796969,0.09705591430607516,0.09544432030428522,0.09385943210132335,0.09257644294269561,0.0917843543763753,0.09157756607138069,0.09193470395994467,0.09265480785667671,0.09356205632487984,0.0943875031085593,0.0,0.0,0.0,0.0,0.0,0.0,0.0,0.0,0.0,0.0,0.0,0.0,0.0,0.0,0.0,0.0,0.0,0.0,0.0,0.0,0.0,0.0,0.0,0.0,0.0,0.0,0.0,0.0,0.0,0.0,0.0,0.0,0.0,0.0,0.0,0.0,0.0,0.0,0.0,0.0,0.0,0.0,0.0,0.0,0.0,0.0,0.0,0.0,0.0,0.0,0.0,0.0,0.0,0.0,0.0,0.0,0.0,0.0,0.0,0.0,0.0,0.0,0.0,0.0,0.0,0.0,0.0,0.0,0.0,0.0,0.0,0.0,0.0,0.0,0.0,0.0,0.0,0.0,0.0,0.0,0.0,0.0,0.0,0.0,0.0,0.0,0.0,0.0,0.0,0.0,0.0,0.0,0.0,0.0,0.0,0.0,0.0,0.0,0.0,0.0,0.0,0.0,0.0,0.0,0.0,0.0,0.0,0.0,0.0,0.0,0.0,0.0,0.0,0.0,0.0,0.0,0.0,0.0,0.0,0.0,0.0,0.0,0.0,0.0,0.0,0.0,0.0,0.0,0.0,0.0,0.0,0.0,0.0,0.0,0.0,0.0,0.0,0.0,0.0,0.0,0.0,0.0,0.0,0.0,0.0,0.0,0.0,0.0,0.0,0.0,0.0,0.0,0.0,0.0,0.0,0.0,0.0,0.0,0.0,0.0,0.0,0.0,0.0,0.0,0.0,0.0,0.0,0.0,0.0,0.0,0.0,0.0,0.0,0.0,0.0,0.0,0.0,0.0,0.0,0.0,0.0,0.0,0.0,0.0,0.0,0.0,0.0,0.0,0.0,0.0,0.0,0.0,0.0,0.0,0.0,0.0,0.0,0.0,0.0,0.0,0.0,0.0,0.0,0.0,0.0,0.0,0.0,0.0,0.0,0.0,0.0,0.0,0.0,0.0,0.0,0.0,0.0,0.0,0.0,0.0,0.0,0.0,0.0,0.0,0.0,0.0,0.0,0.0,0.0,0.0,0.0,0.0,0.0,0.0,0.0,0.0,0.0,0.0,0.0,0.04792704817406117,0.04471733851991698,0.04048742645023152,0.034376567260056536,0.026883626289197955,0.01907718851579749,0.012282279642093,0.00764680254569806,0.005569924231245002,0.006343804051735564,0.009501583256912947,0.014194007031900215,0.019429277066198528,0.024047571311003504,0.027678176138127602,0.03005999306298655,0.031193392009848185,0.031211751586699005,0.02999161255995794,0.02789064965959269,0.02498387026613227,0.021350212083467927,0.017159583186895637,0.012191010088578518,0.007517630383834853,0.0039827345317887675,0.0023656353204211584,0.0031074147870922696,0.0052670312006654505,0.009029988541042342,0.01375541272979997,0.018728619555405324,0.02336269049858196,0.026627957244795036,0.02945997916393039,0.03258737934871991,0.03698623933640578,0.043617966210071656,0.052527161563559376,0.0647404877680731,0.07999642435785226,0.09751281793246752,0.1161695842449374,0.1343668530113184,0.15142569922190133,0.166484026986094,0.17898582022079743,0.1887212022798031,0.19572201451657947,0.20050978279573323,0.20370407030512153,0.20602139156939575,0.2081679883053535,0.21065909844523376,0.21394279368410907,0.21810045046395946,0.22286319671060031,0.22761477433090385,0.2314115337600619,0.23328204798625365,0.23232908369772762,0.0,0.0,0.0,0.0,0.0,0.0,0.0,0.0,0.0,0.0,0.0,0.0,0.0,0.0,0.0,0.0,0.0,0.0,0.0,0.0,0.0,0.0,0.0,0.0,0.0,0.0,0.0,0.0,0.0,0.0,0.0,0.0,0.0,0.0,0.0,0.0,0.0,0.0,0.0,0.0,0.0,0.0,0.0,0.0,0.0,0.0,0.0,0.0,0.0,0.0,0.0,0.0,0.0,0.0,0.0,0.0,0.0,0.0,0.0,0.0,0.0,0.0,0.0,0.0,0.0,0.0,0.0,0.0,0.0,0.0,0.0,0.0,0.0,0.0,0.0,0.0,0.0,0.0,0.0,0.0,0.0,0.0,0.0,0.0,0.0,0.0,0.0,0.0,0.0,0.0,0.0,0.0,0.0,0.0,0.0,0.0,0.0,0.0,0.0,0.0,0.0,0.0,0.0,0.0,0.0,0.0,0.0,0.0,0.0,0.0,0.0,0.0,0.0,0.0,0.0,0.0,0.0,0.0,0.0,0.0,0.0,0.0,0.0,0.0,0.0,0.0,0.0,0.0,0.0,0.0,0.0,0.0,0.0,0.0,0.0,0.0,0.0,0.0,0.0,0.0,0.0,0.0,0.0,0.0,0.0,0.0,0.0,0.0,0.0,0.0,0.0,0.0,0.0,0.0,0.0,0.0,0.0,0.0,0.0,0.0,0.0,0.0,0.0,0.0,0.0,0.0,0.0,0.0,0.0,0.0,0.0,0.0,0.0,0.0,0.0,0.0,0.0,0.0,0.0,0.0,0.0,0.0,0.0,0.0,0.0,0.0,0.0,0.0,0.0,0.0,0.0,0.0,0.0,0.0,0.0,0.0,0.0,0.0,0.0,0.0,0.0,0.0,0.0,0.0,0.0,0.0,0.0,0.0,0.0,0.0,0.0,0.0,0.0,0.0,0.0,0.0,0.0,0.0,0.0,0.0,0.0,0.0,0.0,0.0,0.0,0.0,0.0,0.0,0.0,0.0,0.0,0.0,0.0,0.0,0.0,0.0,0.0,0.0,0.0
0.2027790544894929,0.18102464351069858,0.1544046581037302,0.12566214256484604,0.09746155594525922,0.07230623194257647,0.05191711274405291,0.03717636526653939,0.028121043678842973,0.023961298562970745,0.023678539923921868,0.025912329383850793,0.029340265891919917,0.032878234867073704,0.03569833703978915,0.037557263707699275,0.03839867938259548,0.0383553615652698,0.037635426055304434,0.03635577421846555,0.03474468609243924,0.0328512420904612,0.030681067044501915,0.02825938376184471,0.02561120449949255,0.023046023618795666,0.020858936016343796,0.019375526280671917,0.018883341468384992,0.019483178476557075,0.021299857937890045,0.02418291259278341,0.027823381149467287,0.03181465333388332,0.03565267565247464,0.03906311880473238,0.04178741945500706,0.043688900426516436,0.04474596519938164,0.04494813797215679,0.04450585623560666,0.043570662457046064,0.0422944347357023,0.04082784950037584,0.039211162725516294,0.03779911321758495,0.03680095314341294,0.03643402126901001,0.03690973380137004,0.03823887097844005,0.040766463014684104,0.044447077164251586,0.04906591665700225,0.054260180078649606,0.05935611673426554,0.06407594519069085,0.06795359374571261,0.07057358187821736,0.07161062635592917,0.07062114316496103,0.06780807006977597,0.0,0.0,0.0,0.0,0.0,0.0,0.0,0.0,0.0,0.0,0.0,0.0,0.0,0.0,0.0,0.0,0.0,0.0,0.0,0.0,0.0,0.0,0.0,0.0,0.0,0.0,0.0,0.0,0.0,0.0,0.0,0.0,0.0,0.0,0.0,0.0,0.0,0.0,0.0,0.0,0.0,0.0,0.0,0.0,0.0,0.0,0.0,0.0,0.0,0.0,0.0,0.0,0.0,0.0,0.0,0.0,0.0,0.0,0.0,0.0,0.0,0.0,0.0,0.0,0.0,0.0,0.0,0.0,0.0,0.0,0.0,0.0,0.0,0.0,0.0,0.0,0.0,0.0,0.0,0.0,0.0,0.0,0.0,0.0,0.0,0.0,0.0,0.0,0.0,0.0,0.0,0.0,0.0,0.0,0.0,0.0,0.0,0.0,0.0,0.0,0.0,0.0,0.0,0.0,0.0,0.0,0.0,0.0,0.0,0.0,0.0,0.0,0.0,0.0,0.0,0.0,0.0,0.0,0.0,0.0,0.0,0.0,0.0,0.0,0.0,0.0,0.0,0.0,0.0,0.0,0.0,0.0,0.0,0.0,0.0,0.0,0.0,0.0,0.0,0.0,0.0,0.0,0.0,0.0,0.0,0.0,0.0,0.0,0.0,0.0,0.0,0.0,0.0,0.0,0.0,0.0,0.0,0.0,0.0,0.0,0.0,0.0,0.0,0.0,0.0,0.0,0.0,0.0,0.0,0.0,0.0,0.0,0.0,0.0,0.0,0.0,0.0,0.0,0.0,0.0,0.0,0.0,0.0,0.0,0.0,0.0,0.0,0.0,0.0,0.0,0.0,0.0,0.0,0.0,0.0,0.0,0.0,0.0,0.0,0.0,0.0,0.0,0.0,0.0,0.0,0.0,0.0,0.0,0.0,0.0,0.0,0.0,0.0,0.0,0.0,0.0,0.0,0.0,0.0,0.0,0.0,0.0,0.0,0.0,0.0,0.0,0.0,0.0,0.0,0.0,0.0,0.0,0.0,0.0,0.0,0.0,0.0,0.0,0.0,0.29081562728857585,0.2557604651726452,0.214510039640662,0.1694785956440003,0.1238823909801386,0.08147303915106936,0.04536753469070808,0.017665953480583616,-0.0008488318981986452,-0.010877256121294435,-0.013853205012815256,-0.012047955545871989,-0.00789328316451418,-0.0035156698897125145,-0.0005843114865083353,0.00038975152165517937,-0.000582598729025474,-0.003005414566669864,-0.006182507881226383,-0.00968304073406062,-0.012887705055740183,-0.01565622097100015,-0.018089646480296387,-0.020409271835283134,-0.023017451966559358,-0.0257907349167127,-0.02869711195866528,-0.03165762796041634,-0.03463603578933989,-0.0378961863101441,-0.04140624566372162,-0.045422063323580314,-0.05015209236300818,-0.05561093950669339,-0.061783824786978185,-0.06769397309995677,-0.07258286080221257,-0.07571910473620967,-0.07658584322404689,-0.0753815976746991,-0.07184092864764384,-0.06667816294561857,-0.060854635164214944,-0.05527209261630304,-0.05081638860292844,-0.04704698666691052,-0.04352092422237167,-0.039459820597796944,-0.033958342008559184,-0.026542135791054525,-0.01635810757310159,-0.003480086655463494,0.01147749088269309,0.027501038763006826,0.04306870453391175,0.05747168196012375,0.07002405211658992,0.08046667378213541,0.08896041953457283,0.09561051801554542,0.10139872168923617,0.0,0.0,0.0,0.0,0.0,0.0,0.0,0.0,0.0,0.0,0.0,0.0,0.0,0.0,0.0,0.0,0.0,0.0,0.0,0.0,0.0,0.0,0.0,0.0,0.0,0.0,0.0,0.0,0.0,0.0,0.0,0.0,0.0,0.0,0.0,0.0,0.0,0.0,0.0,0.0,0.0,0.0,0.0,0.0,0.0,0.0,0.0,0.0,0.0,0.0,0.0,0.0,0.0,0.0,0.0,0.0,0.0,0.0,0.0,0.0,0.0,0.0,0.0,0.0,0.0,0.0,0.0,0.0,0.0,0.0,0.0,0.0,0.0,0.0,0.0,0.0,0.0,0.0,0.0,0.0,0.0,0.0,0.0,0.0,0.0,0.0,0.0,0.0,0.0,0.0,0.0,0.0,0.0,0.0,0.0,0.0,0.0,0.0,0.0,0.0,0.0,0.0,0.0,0.0,0.0,0.0,0.0,0.0,0.0,0.0,0.0,0.0,0.0,0.0,0.0,0.0,0.0,0.0,0.0,0.0,0.0,0.0,0.0,0.0,0.0,0.0,0.0,0.0,0.0,0.0,0.0,0.0,0.0,0.0,0.0,0.0,0.0,0.0,0.0,0.0,0.0,0.0,0.0,0.0,0.0,0.0,0.0,0.0,0.0,0.0,0.0,0.0,0.0,0.0,0.0,0.0,0.0,0.0,0.0,0.0,0.0,0.0,0.0,0.0,0.0,0.0,0.0,0.0,0.0,0.0,0.0,0.0,0.0,0.0,0.0,0.0,0.0,0.0,0.0,0.0,0.0,0.0,0.0,0.0,0.0,0.0,0.0,0.0,0.0,0.0,0.0,0.0,0.0,0.0,0.0,0.0,0.0,0.0,0.0,0.0,0.0,0.0,0.0,0.0,0.0,0.0,0.0,0.0,0.0,0.0,0.0,0.0,0.0,0.0,0.0,0.0,0.0,0.0,0.0,0.0,0.0,0.0,0.0,0.0,0.0,0.0,0.0,0.0,0.0,0.0,0.0,0.0,0.0,0.0,0.0,0.0,0.0,0.0,0.0
0.02056856585460477,-0.011759014904838468,-0.034730520639863725,-0.04784086111634144,-0.051881588298618685,-0.0484903813922958,-0.0399335209533378,-0.028630423975498028,-0.01677153457592977,-0.006093941107022824,0.002445734978734301,0.00849718818514049,0.012260248573038993,0.014297791964481903,0.015266016507602488,0.015907511940978378,0.016724315770694012,0.017969213913082635,0.019645767056658638,0.021511212921710272,0.023313622947678126,0.02469930922044344,0.02534145919907556,0.024993742148835377,0.023484564712184523,0.02086591816810748,0.017254993632132468,0.012883114941729735,0.00808152965630504,0.00319847766270529,-0.0012673261179797827,-0.004923590747377961,-0.007486025513267237,-0.0088306828362253,-0.00908871463065002,-0.008407250205813963,-0.007127599566422779,-0.005631028069996204,-0.004244825389866268,-0.003277476033153048,-0.002558988796219419,-0.0019216790637936337,-0.001072391797509378,0.00034103205649276203,0.002477379724384957,0.005810476742612529,0.010330123667110815,0.015794198005135266,0.021784217705449548,0.02771204189364428,0.03318573978100922,0.03776852849096751,0.04115710422179949,0.04322740335440633,0.04405469997382091,0.04384000959108431,0.04294123456012307,0.041754342892753704,0.040623303365757514,0.03974914975943891,0.03919653260265758,0.0,0.0,0.0,0.0,0.0,0.0,0.0,0.0,0.0,0.0,0.0,0.0,0.0,0.0,0.0,0.0,0.0,0.0,0.0,0.0,0.0,0.0,0.0,0.0,0.0,0.0,0.0,0.0,0.0,0.0,0.0,0.0,0.0,0.0,0.0,0.0,0.0,0.0,0.0,0.0,0.0,0.0,0.0,0.0,0.0,0.0,0.0,0.0,0.0,0.0,0.0,0.0,0.0,0.0,0.0,0.0,0.0,0.0,0.0,0.0,0.0,0.0,0.0,0.0,0.0,0.0,0.0,0.0,0.0,0.0,0.0,0.0,0.0,0.0,0.0,0.0,0.0,0.0,0.0,0.0,0.0,0.0,0.0,0.0,0.0,0.0,0.0,0.0,0.0,0.0,0.0,0.0,0.0,0.0,0.0,0.0,0.0,0.0,0.0,0.0,0.0,0.0,0.0,0.0,0.0,0.0,0.0,0.0,0.0,0.0,0.0,0.0,0.0,0.0,0.0,0.0,0.0,0.0,0.0,0.0,0.0,0.0,0.0,0.0,0.0,0.0,0.0,0.0,0.0,0.0,0.0,0.0,0.0,0.0,0.0,0.0,0.0,0.0,0.0,0.0,0.0,0.0,0.0,0.0,0.0,0.0,0.0,0.0,0.0,0.0,0.0,0.0,0.0,0.0,0.0,0.0,0.0,0.0,0.0,0.0,0.0,0.0,0.0,0.0,0.0,0.0,0.0,0.0,0.0,0.0,0.0,0.0,0.0,0.0,0.0,0.0,0.0,0.0,0.0,0.0,0.0,0.0,0.0,0.0,0.0,0.0,0.0,0.0,0.0,0.0,0.0,0.0,0.0,0.0,0.0,0.0,0.0,0.0,0.0,0.0,0.0,0.0,0.0,0.0,0.0,0.0,0.0,0.0,0.0,0.0,0.0,0.0,0.0,0.0,0.0,0.0,0.0,0.0,0.0,0.0,0.0,0.0,0.0,0.0,0.0,0.0,0.0,0.0,0.0,0.0,0.0,0.0,0.0,0.0,0.0,0.0,0.0,0.0,0.0,0.10365438251761164,0.06134139067337383,0.029813946054290125,0.008790548186970795,-0.0036682739605877084,-0.00987553487444712,-0.012611030758601934,-0.014319244310186009,-0.01669979939950578,-0.020739337831797818,-0.026116728343339852,-0.032108045609705614,-0.03774907331657839,-0.042190146985982356,-0.04513740500843649,-0.0463680596207838,-0.04624196999005187,-0.04536075946623808,-0.044354194369087545,-0.04386922916384879,-0.04393438001589331,-0.04450302774162058,-0.04540902148585757,-0.04651824175219275,-0.0480066950162608,-0.04989698499966791,-0.05246897039327849,-0.055964106705141306,-0.06040666473852733,-0.06565596704056635,-0.07076031553477809,-0.07464391344450805,-0.07614466078959246,-0.07429508772486193,-0.0688079226692822,-0.059518718787151786,-0.04709897498875806,-0.03269652000821575,-0.017669855524339674,-0.0035742607010680588,0.009129099338411864,0.02017325862977432,0.029862188531395956,0.03895537667618258,0.04805333969903072,0.058605873766478286,0.07119619829072021,0.08585369413083664,0.10203109133166557,0.11844503130470556,0.13412753225688587,0.14778635018280187,0.15833615432750364,0.16510680598714855,0.16782212379588562,0.16701970420094048,0.16361667798875262,0.1587836214019067,0.15368704488487936,0.14912094038346368,0.14572289627090268,0.0,0.0,0.0,0.0,0.0,0.0,0.0,0.0,0.0,0.0,0.0,0.0,0.0,0.0,0.0,0.0,0.0,0.0,0.0,0.0,0.0,0.0,0.0,0.0,0.0,0.0,0.0,0.0,0.0,0.0,0.0,0.0,0.0,0.0,0.0,0.0,0.0,0.0,0.0,0.0,0.0,0.0,0.0,0.0,0.0,0.0,0.0,0.0,0.0,0.0,0.0,0.0,0.0,0.0,0.0,0.0,0.0,0.0,0.0,0.0,0.0,0.0,0.0,0.0,0.0,0.0,0.0,0.0,0.0,0.0,0.0,0.0,0.0,0.0,0.0,0.0,0.0,0.0,0.0,0.0,0.0,0.0,0.0,0.0,0.0,0.0,0.0,0.0,0.0,0.0,0.0,0.0,0.0,0.0,0.0,0.0,0.0,0.0,0.0,0.0,0.0,0.0,0.0,0.0,0.0,0.0,0.0,0.0,0.0,0.0,0.0,0.0,0.0,0.0,0.0,0.0,0.0,0.0,0.0,0.0,0.0,0.0,0.0,0.0,0.0,0.0,0.0,0.0,0.0,0.0,0.0,0.0,0.0,0.0,0.0,0.0,0.0,0.0,0.0,0.0,0.0,0.0,0.0,0.0,0.0,0.0,0.0,0.0,0.0,0.0,0.0,0.0,0.0,0.0,0.0,0.0,0.0,0.0,0.0,0.0,0.0,0.0,0.0,0.0,0.0,0.0,0.0,0.0,0.0,0.0,0.0,0.0,0.0,0.0,0.0,0.0,0.0,0.0,0.0,0.0,0.0,0.0,0.0,0.0,0.0,0.0,0.0,0.0,0.0,0.0,0.0,0.0,0.0,0.0,0.0,0.0,0.0,0.0,0.0,0.0,0.0,0.0,0.0,0.0,0.0,0.0,0.0,0.0,0.0,0.0,0.0,0.0,0.0,0.0,0.0,0.0,0.0,0.0,0.0,0.0,0.0,0.0,0.0,0.0,0.0,0.0,0.0,0.0,0.0,0.0,0.0,0.0,0.0,0.0,0.0,0.0,0.0,0.0,0.0
0.2946888726240742,0.31568028707423523,0.32218588128578063,0.31316227208899566,0.2895363906927072,0.25394925075837244,0.21035908057160238,0.16339672548942655,0.11761658331586135,0.07691869028909093,0.04394957306112924,0.019911522980874254,0.0046075696930724715,-0.0033076125909451675,-0.005803076101148209,-0.0051026793216911465,-0.003216464472343168,-0.001631626022949951,-0.0012013550920980144,-0.002054059275637954,-0.003857239676562014,-0.006008219767624395,-0.007870821738972375,-0.00900713607812348,-0.009160891554382204,-0.008389813007178011,-0.006971639201537918,-0.005297076108615788,-0.0038035769184554184,-0.002723506757703772,-0.002194959851495199,-0.002222456970255133,-0.0027233304782592004,-0.0036484289010106203,-0.004836910621540157,-0.006232085597256639,-0.007809378625403344,-0.009541757671694987,-0.011419335277135166,-0.01324182031012091,-0.01480993142369189,-0.015907897183943257,-0.016360184865130772,-0.016141314474373017,-0.015230096496662475,-0.013777308145713228,-0.012014706352105824,-0.010193071256741806,-0.008643428124373922,-0.0072766070129662835,-0.006103940984540703,-0.005059374431454711,-0.004025957648352836,-0.0030781994659967627,-0.0018006811259555049,-0.00021975747299688336,0.0015377208382907157,0.0033114978713004155,0.004663359883649085,0.005916665490475918,0.007215242881027788,0.0,0.0,0.0,0.0,0.0,0.0,0.0,0.0,0.0,0.0,0.0,0.0,0.0,0.0,0.0,0.0,0.0,0.0,0.0,0.0,0.0,0.0,0.0,0.0,0.0,0.0,0.0,0.0,0.0,0.0,0.0,0.0,0.0,0.0,0.0,0.0,0.0,0.0,0.0,0.0,0.0,0.0,0.0,0.0,0.0,0.0,0.0,0.0,0.0,0.0,0.0,0.0,0.0,0.0,0.0,0.0,0.0,0.0,0.0,0.0,0.0,0.0,0.0,0.0,0.0,0.0,0.0,0.0,0.0,0.0,0.0,0.0,0.0,0.0,0.0,0.0,0.0,0.0,0.0,0.0,0.0,0.0,0.0,0.0,0.0,0.0,0.0,0.0,0.0,0.0,0.0,0.0,0.0,0.0,0.0,0.0,0.0,0.0,0.0,0.0,0.0,0.0,0.0,0.0,0.0,0.0,0.0,0.0,0.0,0.0,0.0,0.0,0.0,0.0,0.0,0.0,0.0,0.0,0.0,0.0,0.0,0.0,0.0,0.0,0.0,0.0,0.0,0.0,0.0,0.0,0.0,0.0,0.0,0.0,0.0,0.0,0.0,0.0,0.0,0.0,0.0,0.0,0.0,0.0,0.0,0.0,0.0,0.0,0.0,0.0,0.0,0.0,0.0,0.0,0.0,0.0,0.0,0.0,0.0,0.0,0.0,0.0,0.0,0.0,0.0,0.0,0.0,0.0,0.0,0.0,0.0,0.0,0.0,0.0,0.0,0.0,0.0,0.0,0.0,0.0,0.0,0.0,0.0,0.0,0.0,0.0,0.0,0.0,0.0,0.0,0.0,0.0,0.0,0.0,0.0,0.0,0.0,0.0,0.0,0.0,0.0,0.0,0.0,0.0,0.0,0.0,0.0,0.0,0.0,0.0,0.0,0.0,0.0,0.0,0.0,0.0,0.0,0.0,0.0,0.0,0.0,0.0,0.0,0.0,0.0,0.0,0.0,0.0,0.0,0.0,0.0,0.0,0.0,0.0,0.0,0.0,0.0,0.0,0.0,0.8454884838662875,0.9039484527945745,0.9270040918676549,0.9134113056757671,0.8668336242320651,0.7947073152951873,0.7069457211656471,0.614123217665432,0.5255618777479414,0.44825521652046113,0.38560094119934635,0.33754153388121577,0.301242343463209,0.27211412104085153,0.2456038648923949,0.2178299004116048,0.18659026741979962,0.15167967649098996,0.11451758787212936,0.07811836173438677,0.045642774046009145,0.01977842106308029,0.002117009518770918,-0.007360952669414452,-0.009541367340578973,-0.006507593831269212,-0.0007793112602098207,0.005270935260576014,0.009666416846573316,0.011813199410581697,0.011779801279076324,0.010301588915998357,0.00842486100238111,0.006892422040379106,0.006616804089085757,0.0077834349088451256,0.010114581023822409,0.013028487404108198,0.015631259100540106,0.01761884911816414,0.018672196779764328,0.018674183380683204,0.017632113805835292,0.015370282361729702,0.012126822056606803,0.007900557348051484,0.00272416969049567,-0.003227803508886822,-0.009941119939677251,-0.01615191667330269,-0.02105961620828038,-0.023898115197174566,-0.024087720823608924,-0.021964012762381583,-0.016756297279684886,-0.009192161369573393,-0.00037781101495595025,0.008540334936024144,0.01586158708279757,0.02228215327540594,0.028155553092182505,0.0,0.0,0.0,0.0,0.0,0.0,0.0,0.0,0.0,0.0,0.0,0.0,0.0,0.0,0.0,0.0,0.0,0.0,0.0,0.0,0.0,0.0,0.0,0.0,0.0,0.0,0.0,0.0,0.0,0.0,0.0,0.0,0.0,0.0,0.0,0.0,0.0,0.0,0.0,0.0,0.0,0.0,0.0,0.0,0.0,0.0,0.0,0.0,0.0,0.0,0.0,0.0,0.0,0.0,0.0,0.0,0.0,0.0,0.0,0.0,0.0,0.0,0.0,0.0,0.0,0.0,0.0,0.0,0.0,0.0,0.0,0.0,0.0,0.0,0.0,0.0,0.0,0.0,0.0,0.0,0.0,0.0,0.0,0.0,0.0,0.0,0.0,0.0,0.0,0.0,0.0,0.0,0.0,0.0,0.0,0.0,0.0,0.0,0.0,0.0,0.0,0.0,0.0,0.0,0.0,0.0,0.0,0.0,0.0,0.0,0.0,0.0,0.0,0.0,0.0,0.0,0.0,0.0,0.0,0.0,0.0,0.0,0.0,0.0,0.0,0.0,0.0,0.0,0.0,0.0,0.0,0.0,0.0,0.0,0.0,0.0,0.0,0.0,0.0,0.0,0.0,0.0,0.0,0.0,0.0,0.0,0.0,0.0,0.0,0.0,0.0,0.0,0.0,0.0,0.0,0.0,0.0,0.0,0.0,0.0,0.0,0.0,0.0,0.0,0.0,0.0,0.0,0.0,0.0,0.0,0.0,0.0,0.0,0.0,0.0,0.0,0.0,0.0,0.0,0.0,0.0,0.0,0.0,0.0,0.0,0.0,0.0,0.0,0.0,0.0,0.0,0.0,0.0,0.0,0.0,0.0,0.0,0.0,0.0,0.0,0.0,0.0,0.0,0.0,0.0,0.0,0.0,0.0,0.0,0.0,0.0,0.0,0.0,0.0,0.0,0.0,0.0,0.0,0.0,0.0,0.0,0.0,0.0,0.0,0.0,0.0,0.0,0.0,0.0,0.0,0.0,0.0,0.0,0.0,0.0,0.0,0.0,0.0,0.0
0.3235845640828204,0.38623398493504674,0.43679336545406566,0.4687513730227356,0.47743681538105065,0.4608248846528783,0.41993194609449236,0.3586894001428004,0.283362470003301,0.20159706002877958,0.12126977250612757,0.049425114863670225,-0.008678723958386193,-0.05008239409380941,-0.07424269532349147,-0.08278429665967935,-0.0788381494428653,-0.06641847636981052,-0.049643442132612944,-0.032110502528976806,-0.01650840601990563,-0.004351670690072365,0.0038437313943904578,0.00837184776547851,0.010021690265537854,0.009728307286309442,0.008417182186920722,0.006725969839074578,0.005007633873422274,0.0033836740545338294,0.0018141927166244055,0.00031783715101797624,-0.0010887916360057506,-0.0023221992552911394,-0.0032543421564701957,-0.0038010433168506105,-0.0038507665564301843,-0.003440443095364638,-0.0027048299010756097,-0.0018384502295023322,-0.0011136129467639783,-0.0005938849711742101,-0.0003278909477475411,-0.0002912899546789094,-0.0004225583025344682,-0.0007792795210175617,-0.001227693621105826,-0.0017516356892131589,-0.0023576918670700684,-0.003051257562460956,-0.00398730095388895,-0.004814401369966838,-0.005438305569196282,-0.005759964624281808,-0.005679956822387444,-0.005361993581562826,-0.0043261563295180884,-0.0026937828566835575,-0.0007011668545627196,0.0013898510227161676,0.0032687479136382803,0.0,0.0,0.0,0.0,0.0,0.0,0.0,0.0,0.0,0.0,0.0,0.0,0.0,0.0,0.0,0.0,0.0,0.0,0.0,0.0,0.0,0.0,0.0,0.0,0.0,0.0,0.0,0.0,0.0,0.0,0.0,0.0,0.0,0.0,0.0,0.0,0.0,0.0,0.0,0.0,0.0,0.0,0.0,0.0,0.0,0.0,0.0,0.0,0.0,0.0,0.0,0.0,0.0,0.0,0.0,0.0,0.0,0.0,0.0,0.0,0.0,0.0,0.0,0.0,0.0,0.0,0.0,0.0,0.0,0.0,0.0,0.0,0.0,0.0,0.0,0.0,0.0,0.0,0.0,0.0,0.0,0.0,0.0,0.0,0.0,0.0,0.0,0.0,0.0,0.0,0.0,0.0,0.0,0.0,0.0,0.0,0.0,0.0,0.0,0.0,0.0,0.0,0.0,0.0,0.0,0.0,0.0,0.0,0.0,0.0,0.0,0.0,0.0,0.0,0.0,0.0,0.0,0.0,0.0,0.0,0.0,0.0,0.0,0.0,0.0,0.0,0.0,0.0,0.0,0.0,0.0,0.0,0.0,0.0,0.0,0.0,0.0,0.0,0.0,0.0,0.0,0.0,0.0,0.0,0.0,0.0,0.0,0.0,0.0,0.0,0.0,0.0,0.0,0.0,0.0,0.0,0.0,0.0,0.0,0.0,0.0,0.0,0.0,0.0,0.0,0.0,0.0,0.0,0.0,0.0,0.0,0.0,0.0,0.0,0.0,0.0,0.0,0.0,0.0,0.0,0.0,0.0,0.0,0.0,0.0,0.0,0.0,0.0,0.0,0.0,0.0,0.0,0.0,0.0,0.0,0.0,0.0,0.0,0.0,0.0,0.0,0.0,0.0,0.0,0.0,0.0,0.0,0.0,0.0,0.0,0.0,0.0,0.0,0.0,0.0,0.0,0.0,0.0,0.0,0.0,0.0,0.0,0.0,0.0,0.0,0.0,0.0,0.0,0.0,0.0,0.0,0.0,0.0,0.0,0.0,0.0,0.0,0.0,0.0,0.723098871246843,0.8529732088852591,0.9585157260079509,1.028471646387178,1.0558537409999267,1.0390996574886864,0.9822553469749956,0.8940818056933412,0.7864128615144916,0.6720276761961306,0.5624379519431407,0.4664312790251234,0.38878342504078184,0.33024211590340563,0.2882016113923343,0.25777579839044445,0.2337547114809345,0.21137018405476848,0.18741088740892814,0.16062725837855862,0.13142225621665768,0.10188234439798521,0.07438327735025384,0.051022995526304,0.03305290536478289,0.020419903321877337,0.012493670096206529,0.007718528253754574,0.004313927959703959,0.0007511022748432801,-0.0042645287539556116,-0.010572247708561232,-0.017705763764501992,-0.024914669012617914,-0.03155070081509633,-0.037881288085497296,-0.04364124843381725,-0.04928668983981047,-0.05537504775630643,-0.06227829561650864,-0.07035937997578391,-0.07863532440694591,-0.08598197101250492,-0.09112102361252612,-0.09300589041792094,-0.0914643683956521,-0.08642851674589679,-0.07872256867891107,-0.06958337931862078,-0.06030695562305975,-0.05231762733729466,-0.04540274151931691,-0.03942327399481605,-0.03377966588022162,-0.027608020828198566,-0.020605565289584366,-0.01121343527135702,0.0004844684658770421,0.01382183747780841,0.02782880656269282,0.04120216281796756,0.0,0.0,0.0,0.0,0.0,0.0,0.0,0.0,0.0,0.0,0.0,0.0,0.0,0.0,0.0,0.0,0.0,0.0,0.0,0.0,0.0,0.0,0.0,0.0,0.0,0.0,0.0,0.0,0.0,0.0,0.0,0.0,0.0,0.0,0.0,0.0,0.0,0.0,0.0,0.0,0.0,0.0,0.0,0.0,0.0,0.0,0.0,0.0,0.0,0.0,0.0,0.0,0.0,0.0,0.0,0.0,0.0,0.0,0.0,0.0,0.0,0.0,0.0,0.0,0.0,0.0,0.0,0.0,0.0,0.0,0.0,0.0,0.0,0.0,0.0,0.0,0.0,0.0,0.0,0.0,0.0,0.0,0.0,0.0,0.0,0.0,0.0,0.0,0.0,0.0,0.0,0.0,0.0,0.0,0.0,0.0,0.0,0.0,0.0,0.0,0.0,0.0,0.0,0.0,0.0,0.0,0.0,0.0,0.0,0.0,0.0,0.0,0.0,0.0,0.0,0.0,0.0,0.0,0.0,0.0,0.0,0.0,0.0,0.0,0.0,0.0,0.0,0.0,0.0,0.0,0.0,0.0,0.0,0.0,0.0,0.0,0.0,0.0,0.0,0.0,0.0,0.0,0.0,0.0,0.0,0.0,0.0,0.0,0.0,0.0,0.0,0.0,0.0,0.0,0.0,0.0,0.0,0.0,0.0,0.0,0.0,0.0,0.0,0.0,0.0,0.0,0.0,0.0,0.0,0.0,0.0,0.0,0.0,0.0,0.0,0.0,0.0,0.0,0.0,0.0,0.0,0.0,0.0,0.0,0.0,0.0,0.0,0.0,0.0,0.0,0.0,0.0,0.0,0.0,0.0,0.0,0.0,0.0,0.0,0.0,0.0,0.0,0.0,0.0,0.0,0.0,0.0,0.0,0.0,0.0,0.0,0.0,0.0,0.0,0.0,0.0,0.0,0.0,0.0,0.0,0.0,0.0,0.0,0.0,0.0,0.0,0.0,0.0,0.0,0.0,0.0,0.0,0.0,0.0,0.0,0.0,0.0,0.0,0.0
-0.006952227725179411,-0.007009987427371353,-0.006917834359840496,-0.0071664247975373055,-0.007990863911148451,-0.009220969517936252,-0.010469115242609664,-0.011220335162896593,-0.01097290423822789,-0.009423927964787264,-0.0063786600866865386,-0.0019272298961835223,0.003610290631503125,0.009740837942835603,0.01583617558253319,0.021359157983278573,0.02583166289675077,0.028918982946388026,0.03045458012389909,0.03040827001568456,0.02896197809446816,0.026398993974237627,0.023087543853310036,0.01943869706652572,0.015809074877611184,0.012627652670618442,0.010216061581013128,0.008788656699544312,0.008422814009152346,0.008969323339845665,0.01030806695164885,0.01218653504011668,0.014325149515227138,0.016470049924288622,0.01834800016859989,0.019992919698953046,0.021461583742702232,0.02290323173947024,0.024517285839424897,0.02639403583831156,0.028810891633727763,0.03180911836986101,0.03530406704034479,0.0391013603377824,0.04286748369518613,0.04640221147597855,0.04946917965585916,0.05191223509365812,0.0536854348361399,0.05482725204006196,0.055530032858817704,0.056029970725717713,0.05655976003444452,0.057283016102305045,0.0582192898217138,0.059290578893611806,0.06028844706949768,0.06092269526901005,0.06088059736847019,0.059877089350424746,0.05776401058252409,0.0,0.0,0.0,0.0,0.0,0.0,0.0,0.0,0.0,0.0,0.0,0.0,0.0,0.0,0.0,0.0,0.0,0.0,0.0,0.0,0.0,0.0,0.0,0.0,0.0,0.0,0.0,0.0,0.0,0.0,0.0,0.0,0.0,0.0,0.0,0.0,0.0,0.0,0.0,0.0,0.0,0.0,0.0,0.0,0.0,0.0,0.0,0.0,0.0,0.0,0.0,0.0,0.0,0.0,0.0,0.0,0.0,0.0,0.0,0.0,0.0,0.0,0.0,0.0,0.0,0.0,0.0,0.0,0.0,0.0,0.0,0.0,0.0,0.0,0.0,0.0,0.0,0.0,0.0,0.0,0.0,0.0,0.0,0.0,0.0,0.0,0.0,0.0,0.0,0.0,0.0,0.0,0.0,0.0,0.0,0.0,0.0,0.0,0.0,0.0,0.0,0.0,0.0,0.0,0.0,0.0,0.0,0.0,0.0,0.0,0.0,0.0,0.0,0.0,0.0,0.0,0.0,0.0,0.0,0.0,0.0,0.0,0.0,0.0,0.0,0.0,0.0,0.0,0.0,0.0,0.0,0.0,0.0,0.0,0.0,0.0,0.0,0.0,0.0,0.0,0.0,0.0,0.0,0.0,0.0,0.0,0.0,0.0,0.0,0.0,0.0,0.0,0.0,0.0,0.0,0.0,0.0,0.0,0.0,0.0,0.0,0.0,0.0,0.0,0.0,0.0,0.0,0.0,0.0,0.0,0.0,0.0,0.0,0.0,0.0,0.0,0.0,0.0,0.0,0.0,0.0,0.0,0.0,0.0,0.0,0.0,0.0,0.0,0.0,0.0,0.0,0.0,0.0,0.0,0.0,0.0,0.0,0.0,0.0,0.0,0.0,0.0,0.0,0.0,0.0,0.0,0.0,0.0,0.0,0.0,0.0,0.0,0.0,0.0,0.0,0.0,0.0,0.0,0.0,0.0,0.0,0.0,0.0,0.0,0.0,0.0,0.0,0.0,0.0,0.0,0.0,0.0,0.0,0.0,0.0,0.0,0.0,0.0,0.0,-0.011471861384943341,-0.011827089799340756,-0.010670077386561023,-0.009539122446391945,-0.009599248762602588,-0.011047853619181293,-0.013663727755309382,-0.016923261573702934,-0.020275922225805702,-0.023557073289444896,-0.026499231208248316,-0.029246272594718452,-0.032065614144405154,-0.03517973943965934,-0.03882220165858316,-0.04256961150795424,-0.04598342807627842,-0.048592289849692744,-0.05008355665351297,-0.05065208626737479,-0.050404809049198224,-0.049891515701182665,-0.04971911120061765,-0.05030759615172473,-0.05198202583712314,-0.05385715802388634,-0.054997628347508966,-0.054251633213879484,-0.050531635649936485,-0.04351345560501423,-0.032464259483223165,-0.017911208102453644,-0.0009929072956309896,0.016824195164653152,0.03373022423644382,0.04913777199061284,0.06253554024019768,0.07401075180885604,0.08418002597924278,0.09365626559967552,0.10385711909303878,0.11557962970368293,0.12913422418552722,0.1442380436966948,0.1598072571314216,0.1748632170938955,0.1880531744130524,0.19814821080595343,0.20429606141414683,0.20605147585519362,0.20384040577656254,0.19856400547520778,0.1914728111087983,0.1838916259344321,0.17681450649640126,0.17109948674081363,0.1670889960773602,0.164692375518346,0.1634871904547173,0.1627495129110538,0.16200317000252126,0.0,0.0,0.0,0.0,0.0,0.0,0.0,0.0,0.0,0.0,0.0,0.0,0.0,0.0,0.0,0.0,0.0,0.0,0.0,0.0,0.0,0.0,0.0,0.0,0.0,0.0,0.0,0.0,0.0,0.0,0.0,0.0,0.0,0.0,0.0,0.0,0.0,0.0,0.0,0.0,0.0,0.0,0.0,0.0,0.0,0.0,0.0,0.0,0.0,0.0,0.0,0.0,0.0,0.0,0.0,0.0,0.0,0.0,0.0,0.0,0.0,0.0,0.0,0.0,0.0,0.0,0.0,0.0,0.0,0.0,0.0,0.0,0.0,0.0,0.0,0.0,0.0,0.0,0.0,0.0,0.0,0.0,0.0,0.0,0.0,0.0,0.0,0.0,0.0,0.0,0.0,0.0,0.0,0.0,0.0,0.0,0.0,0.0,0.0,0.0,0.0,0.0,0.0,0.0,0.0,0.0,0.0,0.0,0.0,0.0,0.0,0.0,0.0,0.0,0.0,0.0,0.0,0.0,0.0,0.0,0.0,0.0,0.0,0.0,0.0,0.0,0.0,0.0,0.0,0.0,0.0,0.0,0.0,0.0,0.0,0.0,0.0,0.0,0.0,0.0,0.0,0.0,0.0,0.0,0.0,0.0,0.0,0.0,0.0,0.0,0.0,0.0,0.0,0.0,0.0,0.0,0.0,0.0,0.0,0.0,0.0,0.0,0.0,0.0,0.0,0.0,0.0,0.0,0.0,0.0,0.0,0.0,0.0,0.0,0.0,0.0,0.0,0.0,0.0,0.0,0.0,0.0,0.0,0.0,0.0,0.0,0.0,0.0,0.0,0.0,0.0,0.0,0.0,0.0,0.0,0.0,0.0,0.0,0.0,0.0,0.0,0.0,0.0,0.0,0.0,0.0,0.0,0.0,0.0,0.0,0.0,0.0,0.0,0.0,0.0,0.0,0.0,0.0,0.0,0.0,0.0,0.0,0.0,0.0,0.0,0.0,0.0,0.0,0.0,0.0,0.0,0.0,0.0,0.0,0.0,0.0,0.0,0.0,0.0
0.07086641901351402,0.06724608897873953,0.06384672602144209,0.060957663733918296,0.05865611939692732,0.05686173432109161,0.05538327639011793,0.05393730717427585,0.052362251801366534,0.050533431061666766,0.04843153292733256,0.046138884085496955,0.043756020151712635,0.0415242347698744,0.03959930939996762,0.03806187592848003,0.03689449178087598,0.03592647757672818,0.03505895299519325,0.034106142972795205,0.032920689849146874,0.03144750915173359,0.029694299859350737,0.02794679720105824,0.026516720732938277,0.025758715829649014,0.026000526522591196,0.027403325842192676,0.030130813362738457,0.03407923890460106,0.03895969317759414,0.0443399492965531,0.049440987513748196,0.05404288448818765,0.05786699956514881,0.06076461963611051,0.06267937207051501,0.06312255832599727,0.06256986747616754,0.0613269351805793,0.05976308941229013,0.05822708384432106,0.056719870539042566,0.055571064308269594,0.05479513922156398,0.054269558623416245,0.05377479561812712,0.05305441014804158,0.05194011144761864,0.05029626546793067,0.04812620827745723,0.045591557966504256,0.04296056630854699,0.04062687645321983,0.0388670989377075,0.03781251099387024,0.03740832031488138,0.037389447408856656,0.037486377403697306,0.037365849674043515,0.036803671349775136,0.0,0.0,0.0,0.0,0.0,0.0,0.0,0.0,0.0,0.0,0.0,0.0,0.0,0.0,0.0,0.0,0.0,0.0,0.0,0.0,0.0,0.0,0.0,0.0,0.0,0.0,0.0,0.0,0.0,0.0,0.0,0.0,0.0,0.0,0.0,0.0,0.0,0.0,0.0,0.0,0.0,0.0,0.0,0.0,0.0,0.0,0.0,0.0,0.0,0.0,0.0,0.0,0.0,0.0,0.0,0.0,0.0,0.0,0.0,0.0,0.0,0.0,0.0,0.0,0.0,0.0,0.0,0.0,0.0,0.0,0.0,0.0,0.0,0.0,0.0,0.0,0.0,0.0,0.0,0.0,0.0,0.0,0.0,0.0,0.0,0.0,0.0,0.0,0.0,0.0,0.0,0.0,0.0,0.0,0.0,0.0,0.0,0.0,0.0,0.0,0.0,0.0,0.0,0.0,0.0,0.0,0.0,0.0,0.0,0.0,0.0,0.0,0.0,0.0,0.0,0.0,0.0,0.0,0.0,0.0,0.0,0.0,0.0,0.0,0.0,0.0,0.0,0.0,0.0,0.0,0.0,0.0,0.0,0.0,0.0,0.0,0.0,0.0,0.0,0.0,0.0,0.0,0.0,0.0,0.0,0.0,0.0,0.0,0.0,0.0,0.0,0.0,0.0,0.0,0.0,0.0,0.0,0.0,0.0,0.0,0.0,0.0,0.0,0.0,0.0,0.0,0.0,0.0,0.0,0.0,0.0,0.0,0.0,0.0,0.0,0.0,0.0,0.0,0.0,0.0,0.0,0.0,0.0,0.0,0.0,0.0,0.0,0.0,0.0,0.0,0.0,0.0,0.0,0.0,0.0,0.0,0.0,0.0,0.0,0.0,0.0,0.0,0.0,0.0,0.0,0.0,0.0,0.0,0.0,0.0,0.0,0.0,0.0,0.0,0.0,0.0,0.0,0.0,0.0,0.0,0.0,0.0,0.0,0.0,0.0,0.0,0.0,0.0,0.0,0.0,0.0,0.0,0.0,0.0,0.0,0.0,0.0,0.0,0.0,0.18357067066853425,0.1889655750103264,0.19454259909618016,0.19983373750630598,0.20419170273335233,0.20700053663963672,0.20778354246135688,0.2061014305627855,0.20219110003261107,0.19642075590828886,0.18938765833937152,0.18181398989989841,0.17421125595912923,0.16745780196222504,0.16202866993018553,0.1581596556123708,0.15584443733843992,0.15463122885018998,0.15447829869051535,0.1550045556171294,0.1558321802372233,0.15665473207375288,0.15705116394569282,0.15724001253309078,0.15728903807793715,0.15731994119110004,0.15746502680906588,0.1576118439003343,0.15807234688619037,0.15885582060356637,0.15989597157182323,0.16107255663794695,0.16160915152128427,0.16204598445178933,0.16257978112576546,0.16342602013962726,0.16468008646682802,0.16515595769225191,0.1655576222670311,0.1659406974678736,0.16640679525533963,0.16705411326930025,0.1672086904764618,0.16749354608396927,0.16799065077982767,0.1686839863486524,0.16942814007177254,0.16962560890219036,0.1693687850090029,0.1685330410068514,0.1671503446882819,0.16543103764084668,0.1634828473990453,0.16195915149656512,0.16113446652790916,0.16104167977413095,0.1614339352099208,0.16171609965579323,0.16153157674784294,0.16038591029977262,0.15805059812179992,0.0,0.0,0.0,0.0,0.0,0.0,0.0,0.0,0.0,0.0,0.0,0.0,0.0,0.0,0.0,0.0,0.0,0.0,0.0,0.0,0.0,0.0,0.0,0.0,0.0,0.0,0.0,0.0,0.0,0.0,0.0,0.0,0.0,0.0,0.0,0.0,0.0,0.0,0.0,0.0,0.0,0.0,0.0,0.0,0.0,0.0,0.0,0.0,0.0,0.0,0.0,0.0,0.0,0.0,0.0,0.0,0.0,0.0,0.0,0.0,0.0,0.0,0.0,0.0,0.0,0.0,0.0,0.0,0.0,0.0,0.0,0.0,0.0,0.0,0.0,0.0,0.0,0.0,0.0,0.0,0.0,0.0,0.0,0.0,0.0,0.0,0.0,0.0,0.0,0.0,0.0,0.0,0.0,0.0,0.0,0.0,0.0,0.0,0.0,0.0,0.0,0.0,0.0,0.0,0.0,0.0,0.0,0.0,0.0,0.0,0.0,0.0,0.0,0.0,0.0,0.0,0.0,0.0,0.0,0.0,0.0,0.0,0.0,0.0,0.0,0.0,0.0,0.0,0.0,0.0,0.0,0.0,0.0,0.0,0.0,0.0,0.0,0.0,0.0,0.0,0.0,0.0,0.0,0.0,0.0,0.0,0.0,0.0,0.0,0.0,0.0,0.0,0.0,0.0,0.0,0.0,0.0,0.0,0.0,0.0,0.0,0.0,0.0,0.0,0.0,0.0,0.0,0.0,0.0,0.0,0.0,0.0,0.0,0.0,0.0,0.0,0.0,0.0,0.0,0.0,0.0,0.0,0.0,0.0,0.0,0.0,0.0,0.0,0.0,0.0,0.0,0.0,0.0,0.0,0.0,0.0,0.0,0.0,0.0,0.0,0.0,0.0,0.0,0.0,0.0,0.0,0.0,0.0,0.0,0.0,0.0,0.0,0.0,0.0,0.0,0.0,0.0,0.0,0.0,0.0,0.0,0.0,0.0,0.0,0.0,0.0,0.0,0.0,0.0,0.0,0.0,0.0,0.0,0.0,0.0,0.0,0.0,0.0,0.0
0.09812536019154017,0.14762180700303196,0.20942202753178052,0.2795175588134767,0.35181400967509546,0.41898717683030745,0.473351648114415,0.508099597471631,0.5184181856314884,0.5022647956185172,0.4609248643981833,0.3986425271902017,0.32203099258993845,0.23904281389496362,0.1577113797899318,0.08518142357836092,0.026602429008766252,-0.015310264484598173,-0.040332557841561104,-0.05043412862323641,-0.04894260846493332,-0.03994913554253003,-0.02746581654183847,-0.01480208668518805,-0.004260724870140938,0.0032081180009054756,0.007632245292106993,0.00977223833755531,0.010728384471185,0.011473520962325736,0.01287596707764936,0.015297413521040571,0.018670715835664892,0.022607595933959907,0.02649179400292173,0.029878271901361504,0.03240760239077909,0.03392840260703597,0.03448680739673481,0.03421550587924987,0.03341493242831011,0.032320809072570754,0.03111086805633591,0.02989602059443695,0.028692729398829133,0.027594858553798878,0.02664129552634145,0.025869305986337462,0.025305233792139087,0.024909959911866376,0.024696811799752257,0.02459105571657602,0.02449862434412473,0.02434039297491996,0.023918823659103774,0.02355234247059061,0.02329859574143182,0.02322008632734333,0.02337555215770083,0.023502785974588672,0.024096641595508273,0.0,0.0,0.0,0.0,0.0,0.0,0.0,0.0,0.0,0.0,0.0,0.0,0.0,0.0,0.0,0.0,0.0,0.0,0.0,0.0,0.0,0.0,0.0,0.0,0.0,0.0,0.0,0.0,0.0,0.0,0.0,0.0,0.0,0.0,0.0,0.0,0.0,0.0,0.0,0.0,0.0,0.0,0.0,0.0,0.0,0.0,0.0,0.0,0.0,0.0,0.0,0.0,0.0,0.0,0.0,0.0,0.0,0.0,0.0,0.0,0.0,0.0,0.0,0.0,0.0,0.0,0.0,0.0,0.0,0.0,0.0,0.0,0.0,0.0,0.0,0.0,0.0,0.0,0.0,0.0,0.0,0.0,0.0,0.0,0.0,0.0,0.0,0.0,0.0,0.0,0.0,0.0,0.0,0.0,0.0,0.0,0.0,0.0,0.0,0.0,0.0,0.0,0.0,0.0,0.0,0.0,0.0,0.0,0.0,0.0,0.0,0.0,0.0,0.0,0.0,0.0,0.0,0.0,0.0,0.0,0.0,0.0,0.0,0.0,0.0,0.0,0.0,0.0,0.0,0.0,0.0,0.0,0.0,0.0,0.0,0.0,0.0,0.0,0.0,0.0,0.0,0.0,0.0,0.0,0.0,0.0,0.0,0.0,0.0,0.0,0.0,0.0,0.0,0.0,0.0,0.0,0.0,0.0,0.0,0.0,0.0,0.0,0.0,0.0,0.0,0.0,0.0,0.0,0.0,0.0,0.0,0.0,0.0,0.0,0.0,0.0,0.0,0.0,0.0,0.0,0.0,0.0,0.0,0.0,0.0,0.0,0.0,0.0,0.0,0.0,0.0,0.0,0.0,0.0,0.0,0.0,0.0,0.0,0.0,0.0,0.0,0.0,0.0,0.0,0.0,0.0,0.0,0.0,0.0,0.0,0.0,0.0,0.0,0.0,0.0,0.0,0.0,0.0,0.0,0.0,0.0,0.0,0.0,0.0,0.0,0.0,0.0,0.0,0.0,0.0,0.0,0.0,0.0,0.0,0.0,0.0,0.0,0.0,0.0,0.2596108993195472,0.35889638825775094,0.48192009548613235,0.620342567174219,0.7621092023391488,0.893333141778042,0.9999963486891263,1.0703793553659364,1.0970468570140346,1.0780327012892619,1.0173887527377747,0.9239843244951521,0.8099882641657948,0.6886995317579658,0.5722176386645363,0.4699876719781233,0.38722872579809803,0.32490000708151134,0.280352206501897,0.24845357956603245,0.22358077883435326,0.20051057941305794,0.17565662108280405,0.14757344637541556,0.1166905773990949,0.08536429256855273,0.05638740676054414,0.03231992593645153,0.014794686248934052,0.003915199536293555,-0.0009708995925692872,-0.0016875410101011021,-0.000451763555015324,0.0007118292298253872,0.00024915688869938237,-0.0020683309321267657,-0.005818831363601241,-0.009989790765361354,-0.013371027789283276,-0.015097950578089256,-0.014470459316531643,-0.011592833344425358,-0.007114367983224707,-0.001990442086760503,0.002708514325474516,0.006409595620640181,0.008734591926122675,0.009654756330555788,0.009390143615762271,0.008189012586392298,0.006435259577739203,0.004229987777766352,0.0015566289265220208,-0.0015964285846002454,-0.005383860404668129,-0.008879493860705582,-0.01160599170223365,-0.013017519798263166,-0.012583000784962765,-0.010437464080252003,-0.005511530784028048,0.0,0.0,0.0,0.0,0.0,0.0,0.0,0.0,0.0,0.0,0.0,0.0,0.0,0.0,0.0,0.0,0.0,0.0,0.0,0.0,0.0,0.0,0.0,0.0,0.0,0.0,0.0,0.0,0.0,0.0,0.0,0.0,0.0,0.0,0.0,0.0,0.0,0.0,0.0,0.0,0.0,0.0,0.0,0.0,0.0,0.0,0.0,0.0,0.0,0.0,0.0,0.0,0.0,0.0,0.0,0.0,0.0,0.0,0.0,0.0,0.0,0.0,0.0,0.0,0.0,0.0,0.0,0.0,0.0,0.0,0.0,0.0,0.0,0.0,0.0,0.0,0.0,0.0,0.0,0.0,0.0,0.0,0.0,0.0,0.0,0.0,0.0,0.0,0.0,0.0,0.0,0.0,0.0,0.0,0.0,0.0,0.0,0.0,0.0,0.0,0.0,0.0,0.0,0.0,0.0,0.0,0.0,0.0,0.0,0.0,0.0,0.0,0.0,0.0,0.0,0.0,0.0,0.0,0.0,0.0,0.0,0.0,0.0,0.0,0.0,0.0,0.0,0.0,0.0,0.0,0.0,0.0,0.0,0.0,0.0,0.0,0.0,0.0,0.0,0.0,0.0,0.0,0.0,0.0,0.0,0.0,0.0,0.0,0.0,0.0,0.0,0.0,0.0,0.0,0.0,0.0,0.0,0.0,0.0,0.0,0.0,0.0,0.0,0.0,0.0,0.0,0.0,0.0,0.0,0.0,0.0,0.0,0.0,0.0,0.0,0.0,0.0,0.0,0.0,0.0,0.0,0.0,0.0,0.0,0.0,0.0,0.0,0.0,0.0,0.0,0.0,0.0,0.0,0.0,0.0,0.0,0.0,0.0,0.0,0.0,0.0,0.0,0.0,0.0,0.0,0.0,0.0,0.0,0.0,0.0,0.0,0.0,0.0,0.0,0.0,0.0,0.0,0.0,0.0,0.0,0.0,0.0,0.0,0.0,0.0,0.0,0.0,0.0,0.0,0.0,0.0,0.0,0.0,0.0,0.0,0.0,0.0,0.0,0.0
0.03145588316117286,0.03223563155341936,0.0331441648318671,0.034144126639362095,0.03511432071485312,0.036032844929060476,0.03684733287105706,0.03753428433378019,0.03810243278773166,0.03853862071077495,0.03894634576829683,0.03938032916619249,0.039876846030786076,0.04044372555993192,0.04099052032668569,0.04155561093993125,0.04208355831197494,0.04251200424967324,0.04278501833213218,0.04277626665695606,0.04258759128018723,0.042234928293906494,0.041751680628027414,0.04118945513694468,0.040543710535119855,0.03998294786027779,0.03959315812021497,0.03944651074216297,0.039593891941757185,0.0400028384385439,0.04073198421467052,0.04175195692565681,0.04299866324709346,0.04437676970466939,0.045725346582901054,0.04696928397442632,0.04800191989121905,0.04874429524940526,0.04915964746758159,0.04923012319913682,0.04904891309631637,0.048711864551199704,0.04832341335651229,0.04797124459725972,0.047658820862315376,0.047438961802420396,0.047274693729915045,0.04708923926897946,0.04678284172693784,0.0461926672106901,0.045311754760412964,0.044125531259448,0.04267428579177772,0.04105072938571781,0.039313778498338725,0.03770360968596313,0.03640265837693945,0.03557087051487994,0.03531861704449779,0.0355999792446828,0.03647547580333765,0.0,0.0,0.0,0.0,0.0,0.0,0.0,0.0,0.0,0.0,0.0,0.0,0.0,0.0,0.0,0.0,0.0,0.0,0.0,0.0,0.0,0.0,0.0,0.0,0.0,0.0,0.0,0.0,0.0,0.0,0.0,0.0,0.0,0.0,0.0,0.0,0.0,0.0,0.0,0.0,0.0,0.0,0.0,0.0,0.0,0.0,0.0,0.0,0.0,0.0,0.0,0.0,0.0,0.0,0.0,0.0,0.0,0.0,0.0,0.0,0.0,0.0,0.0,0.0,0.0,0.0,0.0,0.0,0.0,0.0,0.0,0.0,0.0,0.0,0.0,0.0,0.0,0.0,0.0,0.0,0.0,0.0,0.0,0.0,0.0,0.0,0.0,0.0,0.0,0.0,0.0,0.0,0.0,0.0,0.0,0.0,0.0,0.0,0.0,0.0,0.0,0.0,0.0,0.0,0.0,0.0,0.0,0.0,0.0,0.0,0.0,0.0,0.0,0.0,0.0,0.0,0.0,0.0,0.0,0.0,0.0,0.0,0.0,0.0,0.0,0.0,0.0,0.0,0.0,0.0,0.0,0.0,0.0,0.0,0.0,0.0,0.0,0.0,0.0,0.0,0.0,0.0,0.0,0.0,0.0,0.0,0.0,0.0,0.0,0.0,0.0,0.0,0.0,0.0,0.0,0.0,0.0,0.0,0.0,0.0,0.0,0.0,0.0,0.0,0.0,0.0,0.0,0.0,0.0,0.0,0.0,0.0,0.0,0.0,0.0,0.0,0.0,0.0,0.0,0.0,0.0,0.0,0.0,0.0,0.0,0.0,0.0,0.0,0.0,0.0,0.0,0.0,0.0,0.0,0.0,0.0,0.0,0.0,0.0,0.0,0.0,0.0,0.0,0.0,0.0,0.0,0.0,0.0,0.0,0.0,0.0,0.0,0.0,0.0,0.0,0.0,0.0,0.0,0.0,0.0,0.0,0.0,0.0,0.0,0.0,0.0,0.0,0.0,0.0,0.0,0.0,0.0,0.0,0.0,0.0,0.0,0.0,0.0,0.0,-0.04133337359511268,-0.02609299991695265,-0.00819395755484065,0.010661040718928977,0.028691111639284148,0.04481491590055971,0.058519733277605186,0.07001068900667157,0.08008507990708891,0.08970930084575528,0.10017565544572665,0.11235197483361169,0.12655617263145905,0.14244283039756125,0.15885664784738415,0.17464060425545982,0.1883353262423928,0.19866563270190557,0.2048005808880336,0.20628169458199824,0.20378621169575953,0.19826706139931888,0.1909764928158432,0.18321053553855207,0.175862963505329,0.16989769668226362,0.1656457370900657,0.16301902866761583,0.1616204901890705,0.16072325668120405,0.1599884818878512,0.15908595202793027,0.15788853311837528,0.15645100843275433,0.15478372274115285,0.15324224327121064,0.1520580500049851,0.15138719254321537,0.15128152667643818,0.15155695484291903,0.1522142305876567,0.15318361224922278,0.1543999063192647,0.1557865111145403,0.15710609428601557,0.1583100964787052,0.15930392716571365,0.15999495946921558,0.16029149555264244,0.1599903629139101,0.1591220417378154,0.15777689369792608,0.15611800654474675,0.15433967558343997,0.15247148101407876,0.15080018203206164,0.14949356866944707,0.14867194675846251,0.1483878556142375,0.14843096895664173,0.1489097724357513,0.0,0.0,0.0,0.0,0.0,0.0,0.0,0.0,0.0,0.0,0.0,0.0,0.0,0.0,0.0,0.0,0.0,0.0,0.0,0.0,0.0,0.0,0.0,0.0,0.0,0.0,0.0,0.0,0.0,0.0,0.0,0.0,0.0,0.0,0.0,0.0,0.0,0.0,0.0,0.0,0.0,0.0,0.0,0.0,0.0,0.0,0.0,0.0,0.0,0.0,0.0,0.0,0.0,0.0,0.0,0.0,0.0,0.0,0.0,0.0,0.0,0.0,0.0,0.0,0.0,0.0,0.0,0.0,0.0,0.0,0.0,0.0,0.0,0.0,0.0,0.0,0.0,0.0,0.0,0.0,0.0,0.0,0.0,0.0,0.0,0.0,0.0,0.0,0.0,0.0,0.0,0.0,0.0,0.0,0.0,0.0,0.0,0.0,0.0,0.0,0.0,0.0,0.0,0.0,0.0,0.0,0.0,0.0,0.0,0.0,0.0,0.0,0.0,0.0,0.0,0.0,0.0,0.0,0.0,0.0,0.0,0.0,0.0,0.0,0.0,0.0,0.0,0.0,0.0,0.0,0.0,0.0,0.0,0.0,0.0,0.0,0.0,0.0,0.0,0.0,0.0,0.0,0.0,0.0,0.0,0.0,0.0,0.0,0.0,0.0,0.0,0.0,0.0,0.0,0.0,0.0,0.0,0.0,0.0,0.0,0.0,0.0,0.0,0.0,0.0,0.0,0.0,0.0,0.0,0.0,0.0,0.0,0.0,0.0,0.0,0.0,0.0,0.0,0.0,0.0,0.0,0.0,0.0,0.0,0.0,0.0,0.0,0.0,0.0,0.0,0.0,0.0,0.0,0.0,0.0,0.0,0.0,0.0,0.0,0.0,0.0,0.0,0.0,0.0,0.0,0.0,0.0,0.0,0.0,0.0,0.0,0.0,0.0,0.0,0.0,0.0,0.0,0.0,0.0,0.0,0.0,0.0,0.0,0.0,0.0,0.0,0.0,0.0,0.0,0.0,0.0,0.0,0.0,0.0,0.0,0.0,0.0,0.0,0.0
0.044125531259448,0.04267428579177772,0.04105072938571781,0.039313778498338725,0.03770360968596313,0.03640265837693945,0.03557087051487994,0.03531861704449779,0.0355999792446828,0.03647547580333765,0.037866089063466585,0.03963524976636286,0.04160399098336212,0.04349681073359137,0.04520006620555921,0.046561230259280204,0.047473931890779704,0.04788936492222645,0.047758162726884414,0.0472243479355742,0.04641254371289227,0.04546735568426514,0.04452635807776637,0.043554141047364145,0.04274280017379025,0.04212206808017366,0.041642046013349546,0.041163351233306306,0.0402571647748955,0.038900488187834474,0.03699721002580918,0.03456650435927655,0.031756469777442516,0.028686581315671277,0.025839160202231655,0.0236174120988114,0.022376042708780443,0.022349588321578722,0.023537061346604996,0.02590659834765997,0.02920030357010791,0.03305873276375483,0.037094361582934825,0.04091375083252905,0.04434263040439966,0.04727444070742811,0.04973087625394976,0.051839134844290924,0.05375604087755127,0.05573679303270288,0.05794273915927383,0.06045399277947225,0.06325149302749866,0.06618337376335402,0.06908772025990138,0.07168474292330354,0.0736521683052291,0.07466385121070639,0.07440210399721038,0.07270482847136196,0.06949671804347007,0.0,0.0,0.0,0.0,0.0,0.0,0.0,0.0,0.0,0.0,0.0,0.0,0.0,0.0,0.0,0.0,0.0,0.0,0.0,0.0,0.0,0.0,0.0,0.0,0.0,0.0,0.0,0.0,0.0,0.0,0.0,0.0,0.0,0.0,0.0,0.0,0.0,0.0,0.0,0.0,0.0,0.0,0.0,0.0,0.0,0.0,0.0,0.0,0.0,0.0,0.0,0.0,0.0,0.0,0.0,0.0,0.0,0.0,0.0,0.0,0.0,0.0,0.0,0.0,0.0,0.0,0.0,0.0,0.0,0.0,0.0,0.0,0.0,0.0,0.0,0.0,0.0,0.0,0.0,0.0,0.0,0.0,0.0,0.0,0.0,0.0,0.0,0.0,0.0,0.0,0.0,0.0,0.0,0.0,0.0,0.0,0.0,0.0,0.0,0.0,0.0,0.0,0.0,0.0,0.0,0.0,0.0,0.0,0.0,0.0,0.0,0.0,0.0,0.0,0.0,0.0,0.0,0.0,0.0,0.0,0.0,0.0,0.0,0.0,0.0,0.0,0.0,0.0,0.0,0.0,0.0,0.0,0.0,0.0,0.0,0.0,0.0,0.0,0.0,0.0,0.0,0.0,0.0,0.0,0.0,0.0,0.0,0.0,0.0,0.0,0.0,0.0,0.0,0.0,0.0,0.0,0.0,0.0,0.0,0.0,0.0,0.0,0.0,0.0,0.0,0.0,0.0,0.0,0.0,0.0,0.0,0.0,0.0,0.0,0.0,0.0,0.0,0.0,0.0,0.0,0.0,0.0,0.0,0.0,0.0,0.0,0.0,0.0,0.0,0.0,0.0,0.0,0.0,0.0,0.0,0.0,0.0,0.0,0.0,0.0,0.0,0.0,0.0,0.0,0.0,0.0,0.0,0.0,0.0,0.0,0.0,0.0,0.0,0.0,0.0,0.0,0.0,0.0,0.0,0.0,0.0,0.0,0.0,0.0,0.0,0.0,0.0,0.0,0.0,0.0,0.0,0.0,0.0,0.0,0.0,0.0,0.0,0.0,0.0,0.15777689369792608,0.15611800654474675,0.15433967558343997,0.15247148101407876,0.15080018203206164,0.14949356866944707,0.14867194675846251,0.1483878556142375,0.14843096895664173,0.1489097724357513,0.14973728478042,0.15079904002860708,0.1519662521185438,0.15290847509768923,0.1537619634502058,0.15448679572170285,0.15507435460813862,0.15554464862285008,0.155717249738869,0.1559244706398816,0.1562146337970228,0.15659769796221648,0.15705179531355448,0.15700568670455486,0.15699047273811403,0.15717105643267643,0.15768741006679968,0.1585589420042589,0.1587783298523531,0.15887290541508398,0.15883760988141085,0.15872834600754884,0.15863560955883899,0.15802458390073687,0.15755484682634593,0.15743957296012032,0.1578210157940241,0.1587122771134191,0.1595996214241559,0.16065964822799672,0.1617599672377336,0.1628239446943407,0.1638524568250455,0.1646678652488961,0.1656099961460643,0.16672035523431133,0.16791812886474816,0.1689926365366719,0.16956185273144941,0.1694881471215738,0.16856825788181842,0.16679414516949237,0.1644170220657297,0.1618467737625194,0.15981383146596465,0.15878488613356945,0.15890180365661735,0.15984140759478746,0.1607239656318202,0.1604847496719197,0.15780867421529032,0.0,0.0,0.0,0.0,0.0,0.0,0.0,0.0,0.0,0.0,0.0,0.0,0.0,0.0,0.0,0.0,0.0,0.0,0.0,0.0,0.0,0.0,0.0,0.0,0.0,0.0,0.0,0.0,0.0,0.0,0.0,0.0,0.0,0.0,0.0,0.0,0.0,0.0,0.0,0.0,0.0,0.0,0.0,0.0,0.0,0.0,0.0,0.0,0.0,0.0,0.0,0.0,0.0,0.0,0.0,0.0,0.0,0.0,0.0,0.0,0.0,0.0,0.0,0.0,0.0,0.0,0.0,0.0,0.0,0.0,0.0,0.0,0.0,0.0,0.0,0.0,0.0,0.0,0.0,0.0,0.0,0.0,0.0,0.0,0.0,0.0,0.0,0.0,0.0,0.0,0.0,0.0,0.0,0.0,0.0,0.0,0.0,0.0,0.0,0.0,0.0,0.0,0.0,0.0,0.0,0.0,0.0,0.0,0.0,0.0,0.0,0.0,0.0,0.0,0.0,0.0,0.0,0.0,0.0,0.0,0.0,0.0,0.0,0.0,0.0,0.0,0.0,0.0,0.0,0.0,0.0,0.0,0.0,0.0,0.0,0.0,0.0,0.0,0.0,0.0,0.0,0.0,0.0,0.0,0.0,0.0,0.0,0.0,0.0,0.0,0.0,0.0,0.0,0.0,0.0,0.0,0.0,0.0,0.0,0.0,0.0,0.0,0.0,0.0,0.0,0.0,0.0,0.0,0.0,0.0,0.0,0.0,0.0,0.0,0.0,0.0,0.0,0.0,0.0,0.0,0.0,0.0,0.0,0.0,0.0,0.0,0.0,0.0,0.0,0.0,0.0,0.0,0.0,0.0,0.0,0.0,0.0,0.0,0.0,0.0,0.0,0.0,0.0,0.0,0.0,0.0,0.0,0.0,0.0,0.0,0.0,0.0,0.0,0.0,0.0,0.0,0.0,0.0,0.0,0.0,0.0,0.0,0.0,0.0,0.0,0.0,0.0,0.0,0.0,0.0,0.0,0.0,0.0,0.0,0.0,0.0,0.0,0.0,0.0
0.06045399277947225,0.06325149302749866,0.06618337376335402,0.06908772025990138,0.07168474292330354,0.0736521683052291,0.07466385121070639,0.07440210399721038,0.07270482847136196,0.06949671804347007,0.06488014980953122,0.05918580145571722,0.052982317844807225,0.047182072492373016,0.04288336990418131,0.041319575404223284,0.04370775170072807,0.05102208842316543,0.06386367595658615,0.08213531719576711,0.10496209620587699,0.13068901255930873,0.1570036817249164,0.18128075624092302,0.2008554553003325,0.21347497055133294,0.21767027341788941,0.2129961355918509,0.2001459877677182,0.18074976277793275,0.15711739820583095,0.13184702454149172,0.10740123665334281,0.08577286448800381,0.0681876957222379,0.05504964983547975,0.04602377566509399,0.04024076130840915,0.03658174006729718,0.03391667105104983,0.03134273179861038,0.028320733274353437,0.024681842986302088,0.020666200050313027,0.016683982509796025,0.013204423046127818,0.010617690883612882,0.009083318838186529,0.008670297595398302,0.009179911829656686,0.010273593651324957,0.01156294383581503,0.012643667194203286,0.013344799419435008,0.013545669978337359,0.013240490818058427,0.012508196788017178,0.011415518054660102,0.010166089756277964,0.008846846406208303,0.007502455002087629,0.0,0.0,0.0,0.0,0.0,0.0,0.0,0.0,0.0,0.0,0.0,0.0,0.0,0.0,0.0,0.0,0.0,0.0,0.0,0.0,0.0,0.0,0.0,0.0,0.0,0.0,0.0,0.0,0.0,0.0,0.0,0.0,0.0,0.0,0.0,0.0,0.0,0.0,0.0,0.0,0.0,0.0,0.0,0.0,0.0,0.0,0.0,0.0,0.0,0.0,0.0,0.0,0.0,0.0,0.0,0.0,0.0,0.0,0.0,0.0,0.0,0.0,0.0,0.0,0.0,0.0,0.0,0.0,0.0,0.0,0.0,0.0,0.0,0.0,0.0,0.0,0.0,0.0,0.0,0.0,0.0,0.0,0.0,0.0,0.0,0.0,0.0,0.0,0.0,0.0,0.0,0.0,0.0,0.0,0.0,0.0,0.0,0.0,0.0,0.0,0.0,0.0,0.0,0.0,0.0,0.0,0.0,0.0,0.0,0.0,0.0,0.0,0.0,0.0,0.0,0.0,0.0,0.0,0.0,0.0,0.0,0.0,0.0,0.0,0.0,0.0,0.0,0.0,0.0,0.0,0.0,0.0,0.0,0.0,0.0,0.0,0.0,0.0,0.0,0.0,0.0,0.0,0.0,0.0,0.0,0.0,0.0,0.0,0.0,0.0,0.0,0.0,0.0,0.0,0.0,0.0,0.0,0.0,0.0,0.0,0.0,0.0,0.0,0.0,0.0,0.0,0.0,0.0,0.0,0.0,0.0,0.0,0.0,0.0,0.0,0.0,0.0,0.0,0.0,0.0,0.0,0.0,0.0,0.0,0.0,0.0,0.0,0.0,0.0,0.0,0.0,0.0,0.0,0.0,0.0,0.0,0.0,0.0,0.0,0.0,0.0,0.0,0.0,0.0,0.0,0.0,0.0,0.0,0.0,0.0,0.0,0.0,0.0,0.0,0.0,0.0,0.0,0.0,0.0,0.0,0.0,0.0,0.0,0.0,0.0,0.0,0.0,0.0,0.0,0.0,0.0,0.0,0.0,0.0,0.0,0.0,0.0,0.0,0.0,0.16679414516949237,0.1644170220657297,0.1618467737625194,0.15981383146596465,0.15878488613356945,0.15890180365661735,0.15984140759478746,0.1607239656318202,0.1604847496719197,0.15780867421529032,0.15169227114680242,0.14194211234628998,0.12956923253858663,0.11722854656564351,0.1088543998693847,0.10938728793725903,0.12404281709779251,0.15729823356147318,0.2119513388356625,0.2879143146970093,0.38179859116190695,0.4869719694647612,0.5942305010507697,0.6932073458570849,0.7737149928068924,0.8275507536610587,0.8499011218317297,0.8401099788155677,0.8018349997600798,0.7419690046633395,0.6693700606047684,0.5931862867503408,0.521176988789897,0.45877675833854586,0.40813560092623014,0.3683992642070106,0.3364714516689518,0.30804677357609295,0.2792320205965413,0.24709698902369376,0.21046314353205967,0.17003640629516767,0.12791690871616004,0.08744078691521713,0.05178775721602986,0.02342479706012096,0.003601360921383506,-0.008020866111644773,-0.01256975676437755,-0.012221900915705476,-0.009437423084100692,-0.0064217518386683325,-0.004911748407357896,-0.005408826429553562,-0.007879849987718329,-0.011794371795041734,-0.01644486459872017,-0.021406849396903585,-0.02616822418750341,-0.030752858459918563,-0.03540611687406548,0.0,0.0,0.0,0.0,0.0,0.0,0.0,0.0,0.0,0.0,0.0,0.0,0.0,0.0,0.0,0.0,0.0,0.0,0.0,0.0,0.0,0.0,0.0,0.0,0.0,0.0,0.0,0.0,0.0,0.0,0.0,0.0,0.0,0.0,0.0,0.0,0.0,0.0,0.0,0.0,0.0,0.0,0.0,0.0,0.0,0.0,0.0,0.0,0.0,0.0,0.0,0.0,0.0,0.0,0.0,0.0,0.0,0.0,0.0,0.0,0.0,0.0,0.0,0.0,0.0,0.0,0.0,0.0,0.0,0.0,0.0,0.0,0.0,0.0,0.0,0.0,0.0,0.0,0.0,0.0,0.0,0.0,0.0,0.0,0.0,0.0,0.0,0.0,0.0,0.0,0.0,0.0,0.0,0.0,0.0,0.0,0.0,0.0,0.0,0.0,0.0,0.0,0.0,0.0,0.0,0.0,0.0,0.0,0.0,0.0,0.0,0.0,0.0,0.0,0.0,0.0,0.0,0.0,0.0,0.0,0.0,0.0,0.0,0.0,0.0,0.0,0.0,0.0,0.0,0.0,0.0,0.0,0.0,0.0,0.0,0.0,0.0,0.0,0.0,0.0,0.0,0.0,0.0,0.0,0.0,0.0,0.0,0.0,0.0,0.0,0.0,0.0,0.0,0.0,0.0,0.0,0.0,0.0,0.0,0.0,0.0,0.0,0.0,0.0,0.0,0.0,0.0,0.0,0.0,0.0,0.0,0.0,0.0,0.0,0.0,0.0,0.0,0.0,0.0,0.0,0.0,0.0,0.0,0.0,0.0,0.0,0.0,0.0,0.0,0.0,0.0,0.0,0.0,0.0,0.0,0.0,0.0,0.0,0.0,0.0,0.0,0.0,0.0,0.0,0.0,0.0,0.0,0.0,0.0,0.0,0.0,0.0,0.0,0.0,0.0,0.0,0.0,0.0,0.0,0.0,0.0,0.0,0.0,0.0,0.0,0.0,0.0,0.0,0.0,0.0,0.0,0.0,0.0,0.0,0.0,0.0,0.0,0.0,0.0
0.01156294383581503,0.012643667194203286,0.013344799419435008,0.013545669978337359,0.013240490818058427,0.012508196788017178,0.011415518054660102,0.010166089756277964,0.008846846406208303,0.007502455002087629,0.006151353808350048,0.0047523555044717255,0.003400365714231584,0.0021203626297474076,0.00092364558317324,-0.00020548917131708055,-0.0013709643068258728,-0.002582885485960146,-0.003918351302518812,-0.005431346128687546,-0.007120258043211644,-0.008999853214011975,-0.01078365473053639,-0.012303427633150366,-0.013414998843307876,-0.01403502691510621,-0.01429537771842453,-0.014079080782191819,-0.013592226631600781,-0.013086283892373473,-0.01276474582572868,-0.012791138374876275,-0.012938152838538526,-0.01298039205918144,-0.012608118009297916,-0.011494464736351153,-0.009418783421081853,-0.006181746402071265,-0.0018183391620636815,0.003448656077734845,0.00923869668471828,0.015044948506073,0.02040408086765939,0.02487059418578642,0.02811594523217567,0.029971858105787706,0.030434106093075775,0.02968055740309402,0.027994446244701408,0.025724481709183514,0.023231341165961976,0.02082363839563171,0.018789006740423407,0.017321301631237216,0.01653848732849984,0.016490824226136246,0.01714328813145712,0.01847219189068441,0.020387484547205983,0.022754739416014254,0.025392896058302056,0.0,0.0,0.0,0.0,0.0,0.0,0.0,0.0,0.0,0.0,0.0,0.0,0.0,0.0,0.0,0.0,0.0,0.0,0.0,0.0,0.0,0.0,0.0,0.0,0.0,0.0,0.0,0.0,0.0,0.0,0.0,0.0,0.0,0.0,0.0,0.0,0.0,0.0,0.0,0.0,0.0,0.0,0.0,0.0,0.0,0.0,0.0,0.0,0.0,0.0,0.0,0.0,0.0,0.0,0.0,0.0,0.0,0.0,0.0,0.0,0.0,0.0,0.0,0.0,0.0,0.0,0.0,0.0,0.0,0.0,0.0,0.0,0.0,0.0,0.0,0.0,0.0,0.0,0.0,0.0,0.0,0.0,0.0,0.0,0.0,0.0,0.0,0.0,0.0,0.0,0.0,0.0,0.0,0.0,0.0,0.0,0.0,0.0,0.0,0.0,0.0,0.0,0.0,0.0,0.0,0.0,0.0,0.0,0.0,0.0,0.0,0.0,0.0,0.0,0.0,0.0,0.0,0.0,0.0,0.0,0.0,0.0,0.0,0.0,0.0,0.0,0.0,0.0,0.0,0.0,0.0,0.0,0.0,0.0,0.0,0.0,0.0,0.0,0.0,0.0,0.0,0.0,0.0,0.0,0.0,0.0,0.0,0.0,0.0,0.0,0.0,0.0,0.0,0.0,0.0,0.0,0.0,0.0,0.0,0.0,0.0,0.0,0.0,0.0,0.0,0.0,0.0,0.0,0.0,0.0,0.0,0.0,0.0,0.0,0.0,0.0,0.0,0.0,0.0,0.0,0.0,0.0,0.0,0.0,0.0,0.0,0.0,0.0,0.0,0.0,0.0,0.0,0.0,0.0,0.0,0.0,0.0,0.0,0.0,0.0,0.0,0.0,0.0,0.0,0.0,0.0,0.0,0.0,0.0,0.0,0.0,0.0,0.0,0.0,0.0,0.0,0.0,0.0,0.0,0.0,0.0,0.0,0.0,0.0,0.0,0.0,0.0,0.0,0.0,0.0,0.0,0.0,0.0,0.0,0.0,0.0,0.0,0.0,0.0,-0.0064217518386683325,-0.004911748407357896,-0.005408826429553562,-0.007879849987718329,-0.011794371795041734,-0.01644486459872017,-0.021406849396903585,-0.02616822418750341,-0.030752858459918563,-0.03540611687406548,-0.040388622495800726,-0.04593028566358167,-0.05161777420095635,-0.05696127450207754,-0.061364755281903244,-0.06433238039288128,-0.06579712907769472,-0.06576178848276047,-0.0647461285606767,-0.06345932551951172,-0.06254791609843821,-0.06269193445276054,-0.06323531483197771,-0.0636402134294818,-0.06310358517083488,-0.06076345180399515,-0.05649539050519746,-0.049150977658136544,-0.039092783135125875,-0.027236951590163202,-0.014764664693649544,-0.0031948908900474864,0.00733346892162681,0.016463923685382957,0.024275143222844672,0.031234122416696066,0.037784845262986304,0.045050516379842864,0.053554031674199705,0.063433913260717,0.07440426291493522,0.08563561902060152,0.0964589542688041,0.10591389712927939,0.11314480600184434,0.11757440341317439,0.11893525838208052,0.11753792238343379,0.11402167187158789,0.1092580496993768,0.10416260589305883,0.09943780076295708,0.09565479053509354,0.09303583721341237,0.09150311303506078,0.09075080837294323,0.09028948425820112,0.08975881650612852,0.08889794116867447,0.08761952147373499,0.08600323823227875,0.0,0.0,0.0,0.0,0.0,0.0,0.0,0.0,0.0,0.0,0.0,0.0,0.0,0.0,0.0,0.0,0.0,0.0,0.0,0.0,0.0,0.0,0.0,0.0,0.0,0.0,0.0,0.0,0.0,0.0,0.0,0.0,0.0,0.0,0.0,0.0,0.0,0.0,0.0,0.0,0.0,0.0,0.0,0.0,0.0,0.0,0.0,0.0,0.0,0.0,0.0,0.0,0.0,0.0,0.0,0.0,0.0,0.0,0.0,0.0,0.0,0.0,0.0,0.0,0.0,0.0,0.0,0.0,0.0,0.0,0.0,0.0,0.0,0.0,0.0,0.0,0.0,0.0,0.0,0.0,0.0,0.0,0.0,0.0,0.0,0.0,0.0,0.0,0.0,0.0,0.0,0.0,0.0,0.0,0.0,0.0,0.0,0.0,0.0,0.0,0.0,0.0,0.0,0.0,0.0,0.0,0.0,0.0,0.0,0.0,0.0,0.0,0.0,0.0,0.0,0.0,0.0,0.0,0.0,0.0,0.0,0.0,0.0,0.0,0.0,0.0,0.0,0.0,0.0,0.0,0.0,0.0,0.0,0.0,0.0,0.0,0.0,0.0,0.0,0.0,0.0,0.0,0.0,0.0,0.0,0.0,0.0,0.0,0.0,0.0,0.0,0.0,0.0,0.0,0.0,0.0,0.0,0.0,0.0,0.0,0.0,0.0,0.0,0.0,0.0,0.0,0.0,0.0,0.0,0.0,0.0,0.0,0.0,0.0,0.0,0.0,0.0,0.0,0.0,0.0,0.0,0.0,0.0,0.0,0.0,0.0,0.0,0.0,0.0,0.0,0.0,0.0,0.0,0.0,0.0,0.0,0.0,0.0,0.0,0.0,0.0,0.0,0.0,0.0,0.0,0.0,0.0,0.0,0.0,0.0,0.0,0.0,0.0,0.0,0.0,0.0,0.0,0.0,0.0,0.0,0.0,0.0,0.0,0.0,0.0,0.0,0.0,0.0,0.0,0.0,0.0,0.0,0.0,0.0,0.0,0.0,0.0,0.0,0.0
0.02082363839563171,0.018789006740423407,0.017321301631237216,0.01653848732849984,0.016490824226136246,0.01714328813145712,0.01847219189068441,0.020387484547205983,0.022754739416014254,0.025392896058302056,0.027948055196504472,0.03029228529245321,0.03223847760709007,0.03362131334011661,0.03429496789046787,0.03390636387726956,0.03259736636922322,0.030503098846223892,0.027868339615195064,0.02500220635138516,0.022095902362376185,0.01952108018391515,0.017521146275397026,0.016240587702349776,0.015709444812302447,0.01584095448592495,0.01649182805704143,0.017497069010297503,0.018703325367347014,0.019987683911111366,0.02126478456636609,0.02243911188940705,0.023417536414504,0.024077659245912885,0.024265923009920275,0.02384757225269984,0.022659808793154258,0.020645661693518426,0.017879851802621877,0.014595238831963672,0.011185367454286896,0.00811479281638471,0.005846041930487987,0.004732677790835164,0.0049245546540070675,0.006308837354572459,0.008531294319578955,0.011026901898818633,0.013189659163071589,0.014569778310039205,0.015076510846765272,0.015127478163413274,0.015675104436006726,0.018143352895271154,0.024215001966071337,0.035511912335881954,0.05318815719282781,0.0775581636329243,0.10784702987771425,0.1421216994524219,0.1774510815252523,0.0,0.0,0.0,0.0,0.0,0.0,0.0,0.0,0.0,0.0,0.0,0.0,0.0,0.0,0.0,0.0,0.0,0.0,0.0,0.0,0.0,0.0,0.0,0.0,0.0,0.0,0.0,0.0,0.0,0.0,0.0,0.0,0.0,0.0,0.0,0.0,0.0,0.0,0.0,0.0,0.0,0.0,0.0,0.0,0.0,0.0,0.0,0.0,0.0,0.0,0.0,0.0,0.0,0.0,0.0,0.0,0.0,0.0,0.0,0.0,0.0,0.0,0.0,0.0,0.0,0.0,0.0,0.0,0.0,0.0,0.0,0.0,0.0,0.0,0.0,0.0,0.0,0.0,0.0,0.0,0.0,0.0,0.0,0.0,0.0,0.0,0.0,0.0,0.0,0.0,0.0,0.0,0.0,0.0,0.0,0.0,0.0,0.0,0.0,0.0,0.0,0.0,0.0,0.0,0.0,0.0,0.0,0.0,0.0,0.0,0.0,0.0,0.0,0.0,0.0,0.0,0.0,0.0,0.0,0.0,0.0,0.0,0.0,0.0,0.0,0.0,0.0,0.0,0.0,0.0,0.0,0.0,0.0,0.0,0.0,0.0,0.0,0.0,0.0,0.0,0.0,0.0,0.0,0.0,0.0,0.0,0.0,0.0,0.0,0.0,0.0,0.0,0.0,0.0,0.0,0.0,0.0,0.0,0.0,0.0,0.0,0.0,0.0,0.0,0.0,0.0,0.0,0.0,0.0,0.0,0.0,0.0,0.0,0.0,0.0,0.0,0.0,0.0,0.0,0.0,0.0,0.0,0.0,0.0,0.0,0.0,0.0,0.0,0.0,0.0,0.0,0.0,0.0,0.0,0.0,0.0,0.0,0.0,0.0,0.0,0.0,0.0,0.0,0.0,0.0,0.0,0.0,0.0,0.0,0.0,0.0,0.0,0.0,0.0,0.0,0.0,0.0,0.0,0.0,0.0,0.0,0.0,0.0,0.0,0.0,0.0,0.0,0.0,0.0,0.0,0.0,0.0,0.0,0.0,0.0,0.0,0.0,0.0,0.0,0.09943780076295708,0.09565479053509354,0.09303583721341237,0.09150311303506078,0.09075080837294323,0.09028948425820112,0.08975881650612852,0.08889794116867447,0.08761952147373499,0.08600323823227875,0.08386163036742797,0.08182346338317012,0.08042071566433448,0.0801389389866076,0.08125566809161426,0.08301648122104244,0.08572357081577794,0.08927054493840211,0.09352064386435872,0.09827110253430152,0.10273825707240138,0.10689930186026501,0.11052790546532168,0.11340211708415596,0.11528653697698878,0.11572612818116004,0.11473112971962694,0.11243122008076882,0.10917706452290517,0.10548641471123596,0.10183392666940085,0.0988062175031191,0.09676460918852942,0.09579615473981581,0.09568629244548314,0.09599903190106142,0.09617062893808014,0.09569231220044391,0.09429874197223767,0.09208547427877971,0.08951815033309289,0.08733587933842818,0.08622858327583598,0.08662623560958642,0.0884846561120763,0.09117010311702606,0.0936221543653939,0.09442057808007702,0.09231945360497572,0.08679880157150982,0.07857588189056089,0.0699808326440165,0.06481620465631828,0.06805843349417309,0.08511294703094334,0.1207837978258968,0.17812449862574117,0.25731294115077386,0.3550901242164588,0.4647549510774469,0.5768556214466163,0.0,0.0,0.0,0.0,0.0,0.0,0.0,0.0,0.0,0.0,0.0,0.0,0.0,0.0,0.0,0.0,0.0,0.0,0.0,0.0,0.0,0.0,0.0,0.0,0.0,0.0,0.0,0.0,0.0,0.0,0.0,0.0,0.0,0.0,0.0,0.0,0.0,0.0,0.0,0.0,0.0,0.0,0.0,0.0,0.0,0.0,0.0,0.0,0.0,0.0,0.0,0.0,0.0,0.0,0.0,0.0,0.0,0.0,0.0,0.0,0.0,0.0,0.0,0.0,0.0,0.0,0.0,0.0,0.0,0.0,0.0,0.0,0.0,0.0,0.0,0.0,0.0,0.0,0.0,0.0,0.0,0.0,0.0,0.0,0.0,0.0,0.0,0.0,0.0,0.0,0.0,0.0,0.0,0.0,0.0,0.0,0.0,0.0,0.0,0.0,0.0,0.0,0.0,0.0,0.0,0.0,0.0,0.0,0.0,0.0,0.0,0.0,0.0,0.0,0.0,0.0,0.0,0.0,0.0,0.0,0.0,0.0,0.0,0.0,0.0,0.0,0.0,0.0,0.0,0.0,0.0,0.0,0.0,0.0,0.0,0.0,0.0,0.0,0.0,0.0,0.0,0.0,0.0,0.0,0.0,0.0,0.0,0.0,0.0,0.0,0.0,0.0,0.0,0.0,0.0,0.0,0.0,0.0,0.0,0.0,0.0,0.0,0.0,0.0,0.0,0.0,0.0,0.0,0.0,0.0,0.0,0.0,0.0,0.0,0.0,0.0,0.0,0.0,0.0,0.0,0.0,0.0,0.0,0.0,0.0,0.0,0.0,0.0,0.0,0.0,0.0,0.0,0.0,0.0,0.0,0.0,0.0,0.0,0.0,0.0,0.0,0.0,0.0,0.0,0.0,0.0,0.0,0.0,0.0,0.0,0.0,0.0,0.0,0.0,0.0,0.0,0.0,0.0,0.0,0.0,0.0,0.0,0.0,0.0,0.0,0.0,0.0,0.0,0.0,0.0,0.0,0.0,0.0,0.0,0.0,0.0,0.0,0.0,0.0
0.015127478163413274,0.015675104436006726,0.018143352895271154,0.024215001966071337,0.035511912335881954,0.05318815719282781,0.0775581636329243,0.10784702987771425,0.1421216994524219,0.1774510815252523,0.21027858560699392,0.2369292550436079,0.2542243724975487,0.26002839693877244,0.25362494358614457,0.2358583488033769,0.2089311117597333,0.17603383802740902,0.14079655279146575,0.10669271772750039,0.07653300689949293,0.052073230417976665,0.033905922431819724,0.021564708644159086,0.01380729438851312,0.009018124886424403,0.005577367315245366,0.002199889046822989,-0.0018649321088843038,-0.006795120363018231,-0.0122467262679272,-0.017593143469028974,-0.02213252427095821,-0.025294572861927694,-0.02680164122401994,-0.026659481814556015,-0.025197380466308678,-0.022937384154103325,-0.02045438548249851,-0.01826643346178446,-0.016665614460486585,-0.01575852460407576,-0.015470325429518263,-0.015614198103069325,-0.016005600460193812,-0.0164459459211354,-0.01683531428557448,-0.017156389723399945,-0.017447842135817706,-0.01779711557693089,-0.018195406747529744,-0.01861755687664457,-0.019002324879929137,-0.01928148616856609,-0.01945377574775222,-0.01948193541308921,-0.019417283229426527,-0.01934125257126148,-0.01932945089963808,-0.01950681963613584,-0.019691417637649138,0.0,0.0,0.0,0.0,0.0,0.0,0.0,0.0,0.0,0.0,0.0,0.0,0.0,0.0,0.0,0.0,0.0,0.0,0.0,0.0,0.0,0.0,0.0,0.0,0.0,0.0,0.0,0.0,0.0,0.0,0.0,0.0,0.0,0.0,0.0,0.0,0.0,0.0,0.0,0.0,0.0,0.0,0.0,0.0,0.0,0.0,0.0,0.0,0.0,0.0,0.0,0.0,0.0,0.0,0.0,0.0,0.0,0.0,0.0,0.0,0.0,0.0,0.0,0.0,0.0,0.0,0.0,0.0,0.0,0.0,0.0,0.0,0.0,0.0,0.0,0.0,0.0,0.0,0.0,0.0,0.0,0.0,0.0,0.0,0.0,0.0,0.0,0.0,0.0,0.0,0.0,0.0,0.0,0.0,0.0,0.0,0.0,0.0,0.0,0.0,0.0,0.0,0.0,0.0,0.0,0.0,0.0,0.0,0.0,0.0,0.0,0.0,0.0,0.0,0.0,0.0,0.0,0.0,0.0,0.0,0.0,0.0,0.0,0.0,0.0,0.0,0.0,0.0,0.0,0.0,0.0,0.0,0.0,0.0,0.0,0.0,0.0,0.0,0.0,0.0,0.0,0.0,0.0,0.0,0.0,0.0,0.0,0.0,0.0,0.0,0.0,0.0,0.0,0.0,0.0,0.0,0.0,0.0,0.0,0.0,0.0,0.0,0.0,0.0,0.0,0.0,0.0,0.0,0.0,0.0,0.0,0.0,0.0,0.0,0.0,0.0,0.0,0.0,0.0,0.0,0.0,0.0,0.0,0.0,0.0,0.0,0.0,0.0,0.0,0.0,0.0,0.0,0.0,0.0,0.0,0.0,0.0,0.0,0.0,0.0,0.0,0.0,0.0,0.0,0.0,0.0,0.0,0.0,0.0,0.0,0.0,0.0,0.0,0.0,0.0,0.0,0.0,0.0,0.0,0.0,0.0,0.0,0.0,0.0,0.0,0.0,0.0,0.0,0.0,0.0,0.0,0.0,0.0,0.0,0.0,0.0,0.0,0.0,0.0,0.0699808326440165,0.06481620465631828,0.06805843349417309,0.08511294703094334,0.1207837978258968,0.17812449862574117,0.25731294115077386,0.3550901242164588,0.4647549510774469,0.5768556214466163,0.6804838180155561,0.7648810848993898,0.8212769629223013,0.8443969551239503,0.8333646822713576,0.7917567754210766,0.7267455754417543,0.6477142324825251,0.5644921329744506,0.4856022597617457,0.4170647167815411,0.361518921270531,0.31838119041338114,0.2845873108249508,0.2556891392566059,0.2274093708084916,0.1964224003816902,0.161176939684093,0.12209249153725454,0.08115580301352882,0.04158687910043335,0.006620071644930942,-0.02116516104320537,-0.04040232775044172,-0.051285024594579856,-0.05501744591656582,-0.05381784260673432,-0.05021538920607376,-0.046479390879351525,-0.044317035176391906,-0.044261894591326914,-0.04614492043284298,-0.04922536856355561,-0.05255645400826133,-0.055466099669205515,-0.05738497914715879,-0.05832633238306485,-0.05866126429676764,-0.058909637853417574,-0.05964024444327386,-0.060877393947034085,-0.06247471175306451,-0.06407112190257196,-0.06526282169857381,-0.06592590279071357,-0.06589814074881883,-0.06541717888818603,-0.06488421336819321,-0.0646822303391021,-0.06531008867141434,-0.06610018793977053,0.0,0.0,0.0,0.0,0.0,0.0,0.0,0.0,0.0,0.0,0.0,0.0,0.0,0.0,0.0,0.0,0.0,0.0,0.0,0.0,0.0,0.0,0.0,0.0,0.0,0.0,0.0,0.0,0.0,0.0,0.0,0.0,0.0,0.0,0.0,0.0,0.0,0.0,0.0,0.0,0.0,0.0,0.0,0.0,0.0,0.0,0.0,0.0,0.0,0.0,0.0,0.0,0.0,0.0,0.0,0.0,0.0,0.0,0.0,0.0,0.0,0.0,0.0,0.0,0.0,0.0,0.0,0.0,0.0,0.0,0.0,0.0,0.0,0.0,0.0,0.0,0.0,0.0,0.0,0.0,0.0,0.0,0.0,0.0,0.0,0.0,0.0,0.0,0.0,0.0,0.0,0.0,0.0,0.0,0.0,0.0,0.0,0.0,0.0,0.0,0.0,0.0,0.0,0.0,0.0,0.0,0.0,0.0,0.0,0.0,0.0,0.0,0.0,0.0,0.0,0.0,0.0,0.0,0.0,0.0,0.0,0.0,0.0,0.0,0.0,0.0,0.0,0.0,0.0,0.0,0.0,0.0,0.0,0.0,0.0,0.0,0.0,0.0,0.0,0.0,0.0,0.0,0.0,0.0,0.0,0.0,0.0,0.0,0.0,0.0,0.0,0.0,0.0,0.0,0.0,0.0,0.0,0.0,0.0,0.0,0.0,0.0,0.0,0.0,0.0,0.0,0.0,0.0,0.0,0.0,0.0,0.0,0.0,0.0,0.0,0.0,0.0,0.0,0.0,0.0,0.0,0.0,0.0,0.0,0.0,0.0,0.0,0.0,0.0,0.0,0.0,0.0,0.0,0.0,0.0,0.0,0.0,0.0,0.0,0.0,0.0,0.0,0.0,0.0,0.0,0.0,0.0,0.0,0.0,0.0,0.0,0.0,0.0,0.0,0.0,0.0,0.0,0.0,0.0,0.0,0.0,0.0,0.0,0.0,0.0,0.0,0.0,0.0,0.0,0.0,0.0,0.0,0.0,0.0,0.0,0.0,0.0,0.0,0.0
-0.01861755687664457,-0.019002324879929137,-0.01928148616856609,-0.01945377574775222,-0.01948193541308921,-0.019417283229426527,-0.01934125257126148,-0.01932945089963808,-0.01950681963613584,-0.019691417637649138,-0.019803095435701686,-0.019735095691917476,-0.019377415630710073,-0.0187928302853965,-0.01770470671760404,-0.016202422623336026,-0.014461416705992668,-0.012677167568742558,-0.01127697266506439,-0.010012289477859789,-0.008786257295705039,-0.007468877147052399,-0.00597691950677504,-0.004741989905529189,-0.0035235090596879176,-0.0023249098163321,-0.0011388775300736152,4.9598294106184056e-05,0.0010695583014476656,0.0020904641923505034,0.00320490257415812,0.004508471890609999,0.00607611609498741,0.007986310170058634,0.010189072348531255,0.012638501152716768,0.015267444457098553,0.017998816856918873,0.020764394617065883,0.023451730115047982,0.025957133669072405,0.028158916048088373,0.02992151761885034,0.031104541049616408,0.03162670576303332,0.03150108827735971,0.030856379409661707,0.02993212608174506,0.029038036797996273,0.02847339947560782,0.028456784871507393,0.029020169798312918,0.02994273454463978,0.03075469459914926,0.030767516561187033,0.029282931987235455,0.025797618319130806,0.020256553963764364,0.013268424865759913,0.006278738911113525,0.001553096418916976,0.0,0.0,0.0,0.0,0.0,0.0,0.0,0.0,0.0,0.0,0.0,0.0,0.0,0.0,0.0,0.0,0.0,0.0,0.0,0.0,0.0,0.0,0.0,0.0,0.0,0.0,0.0,0.0,0.0,0.0,0.0,0.0,0.0,0.0,0.0,0.0,0.0,0.0,0.0,0.0,0.0,0.0,0.0,0.0,0.0,0.0,0.0,0.0,0.0,0.0,0.0,0.0,0.0,0.0,0.0,0.0,0.0,0.0,0.0,0.0,0.0,0.0,0.0,0.0,0.0,0.0,0.0,0.0,0.0,0.0,0.0,0.0,0.0,0.0,0.0,0.0,0.0,0.0,0.0,0.0,0.0,0.0,0.0,0.0,0.0,0.0,0.0,0.0,0.0,0.0,0.0,0.0,0.0,0.0,0.0,0.0,0.0,0.0,0.0,0.0,0.0,0.0,0.0,0.0,0.0,0.0,0.0,0.0,0.0,0.0,0.0,0.0,0.0,0.0,0.0,0.0,0.0,0.0,0.0,0.0,0.0,0.0,0.0,0.0,0.0,0.0,0.0,0.0,0.0,0.0,0.0,0.0,0.0,0.0,0.0,0.0,0.0,0.0,0.0,0.0,0.0,0.0,0.0,0.0,0.0,0.0,0.0,0.0,0.0,0.0,0.0,0.0,0.0,0.0,0.0,0.0,0.0,0.0,0.0,0.0,0.0,0.0,0.0,0.0,0.0,0.0,0.0,0.0,0.0,0.0,0.0,0.0,0.0,0.0,0.0,0.0,0.0,0.0,0.0,0.0,0.0,0.0,0.0,0.0,0.0,0.0,0.0,0.0,0.0,0.0,0.0,0.0,0.0,0.0,0.0,0.0,0.0,0.0,0.0,0.0,0.0,0.0,0.0,0.0,0.0,0.0,0.0,0.0,0.0,0.0,0.0,0.0,0.0,0.0,0.0,0.0,0.0,0.0,0.0,0.0,0.0,0.0,0.0,0.0,0.0,0.0,0.0,0.0,0.0,0.0,0.0,0.0,0.0,0.0,0.0,0.0,0.0,0.0,0.0,-0.06247471175306451,-0.06407112190257196,-0.06526282169857381,-0.06592590279071357,-0.06589814074881883,-0.06541717888818603,-0.06488421336819321,-0.0646822303391021,-0.06531008867141434,-0.06610018793977053,-0.06659562524407556,-0.06615446517078129,-0.0641016389796304,-0.06043320565725139,-0.054111417330604906,-0.04549169700119234,-0.035389474021709846,-0.024817639285416422,-0.015330469992125539,-0.006693833123057859,0.0009788881418124672,0.007898304179277938,0.014466360408797558,0.020345064345586358,0.026643595691136415,0.03371361613550897,0.041674581129354946,0.05037807078641231,0.05901852638146729,0.06742200189363176,0.0750664749913038,0.08147351201328973,0.08628978116402705,0.08930419734741697,0.0905996569940987,0.09050217827765171,0.08952135413891574,0.0882465457139815,0.08723365025808345,0.08684740091328415,0.08727544886934949,0.08847358670054328,0.0902033102639359,0.09218283229240165,0.0939889229872782,0.09538190068878562,0.09630625384740957,0.09690195566685829,0.09754721045045149,0.09845019859720212,0.09981547195602071,0.1016329853447325,0.10360060106978071,0.10524496070796013,0.10561251282387238,0.10383367986864224,0.0992919103671196,0.0919535147816775,0.08277956376146636,0.07360786319730485,0.06748198787524093,0.0,0.0,0.0,0.0,0.0,0.0,0.0,0.0,0.0,0.0,0.0,0.0,0.0,0.0,0.0,0.0,0.0,0.0,0.0,0.0,0.0,0.0,0.0,0.0,0.0,0.0,0.0,0.0,0.0,0.0,0.0,0.0,0.0,0.0,0.0,0.0,0.0,0.0,0.0,0.0,0.0,0.0,0.0,0.0,0.0,0.0,0.0,0.0,0.0,0.0,0.0,0.0,0.0,0.0,0.0,0.0,0.0,0.0,0.0,0.0,0.0,0.0,0.0,0.0,0.0,0.0,0.0,0.0,0.0,0.0,0.0,0.0,0.0,0.0,0.0,0.0,0.0,0.0,0.0,0.0,0.0,0.0,0.0,0.0,0.0,0.0,0.0,0.0,0.0,0.0,0.0,0.0,0.0,0.0,0.0,0.0,0.0,0.0,0.0,0.0,0.0,0.0,0.0,0.0,0.0,0.0,0.0,0.0,0.0,0.0,0.0,0.0,0.0,0.0,0.0,0.0,0.0,0.0,0.0,0.0,0.0,0.0,0.0,0.0,0.0,0.0,0.0,0.0,0.0,0.0,0.0,0.0,0.0,0.0,0.0,0.0,0.0,0.0,0.0,0.0,0.0,0.0,0.0,0.0,0.0,0.0,0.0,0.0,0.0,0.0,0.0,0.0,0.0,0.0,0.0,0.0,0.0,0.0,0.0,0.0,0.0,0.0,0.0,0.0,0.0,0.0,0.0,0.0,0.0,0.0,0.0,0.0,0.0,0.0,0.0,0.0,0.0,0.0,0.0,0.0,0.0,0.0,0.0,0.0,0.0,0.0,0.0,0.0,0.0,0.0,0.0,0.0,0.0,0.0,0.0,0.0,0.0,0.0,0.0,0.0,0.0,0.0,0.0,0.0,0.0,0.0,0.0,0.0,0.0,0.0,0.0,0.0,0.0,0.0,0.0,0.0,0.0,0.0,0.0,0.0,0.0,0.0,0.0,0.0,0.0,0.0,0.0,0.0,0.0,0.0,0.0,0.0,0.0,0.0,0.0,0.0,0.0,0.0,0.0
0.029020169798312918,0.02994273454463978,0.03075469459914926,0.030767516561187033,0.029282931987235455,0.025797618319130806,0.020256553963764364,0.013268424865759913,0.006278738911113525,0.001553096418916976,0.0019620893007200957,0.010570373382888945,0.030033994175598863,0.06208400563428875,0.10690096406030136,0.16274438068232056,0.22586975170383042,0.2907688811881124,0.35092429366613087,0.39964089774140754,0.4310750070291043,0.4411691300247718,0.428286319564452,0.3936194665018978,0.3409358641944035,0.2760031507329518,0.20568478652399116,0.13684628046663752,0.07554406683858739,0.026150129405367137,-0.009030624216162571,-0.029799556976789505,-0.03783038399684248,-0.035911039562892766,-0.0274455563730394,-0.015779485478928608,-0.0037098397687567513,0.006730127764326039,0.014553445230339768,0.019518026292373085,0.02193437752544548,0.022379877439276004,0.021377890866596753,0.019459555490144973,0.016912322854316406,0.013882627902308877,0.010476658634583318,0.006795861264680698,0.003239763784192308,0.0003033166821533204,-0.0014328331741185522,-0.0014265601701093599,0.0006102037053262906,0.004840452246402846,0.01103915649094564,0.018679703326699586,0.027025457547066634,0.03519354001148082,0.04251730442796982,0.048474144287362055,0.05279815427495521,0.0,0.0,0.0,0.0,0.0,0.0,0.0,0.0,0.0,0.0,0.0,0.0,0.0,0.0,0.0,0.0,0.0,0.0,0.0,0.0,0.0,0.0,0.0,0.0,0.0,0.0,0.0,0.0,0.0,0.0,0.0,0.0,0.0,0.0,0.0,0.0,0.0,0.0,0.0,0.0,0.0,0.0,0.0,0.0,0.0,0.0,0.0,0.0,0.0,0.0,0.0,0.0,0.0,0.0,0.0,0.0,0.0,0.0,0.0,0.0,0.0,0.0,0.0,0.0,0.0,0.0,0.0,0.0,0.0,0.0,0.0,0.0,0.0,0.0,0.0,0.0,0.0,0.0,0.0,0.0,0.0,0.0,0.0,0.0,0.0,0.0,0.0,0.0,0.0,0.0,0.0,0.0,0.0,0.0,0.0,0.0,0.0,0.0,0.0,0.0,0.0,0.0,0.0,0.0,0.0,0.0,0.0,0.0,0.0,0.0,0.0,0.0,0.0,0.0,0.0,0.0,0.0,0.0,0.0,0.0,0.0,0.0,0.0,0.0,0.0,0.0,0.0,0.0,0.0,0.0,0.0,0.0,0.0,0.0,0.0,0.0,0.0,0.0,0.0,0.0,0.0,0.0,0.0,0.0,0.0,0.0,0.0,0.0,0.0,0.0,0.0,0.0,0.0,0.0,0.0,0.0,0.0,0.0,0.0,0.0,0.0,0.0,0.0,0.0,0.0,0.0,0.0,0.0,0.0,0.0,0.0,0.0,0.0,0.0,0.0,0.0,0.0,0.0,0.0,0.0,0.0,0.0,0.0,0.0,0.0,0.0,0.0,0.0,0.0,0.0,0.0,0.0,0.0,0.0,0.0,0.0,0.0,0.0,0.0,0.0,0.0,0.0,0.0,0.0,0.0,0.0,0.0,0.0,0.0,0.0,0.0,0.0,0.0,0.0,0.0,0.0,0.0,0.0,0.0,0.0,0.0,0.0,0.0,0.0,0.0,0.0,0.0,0.0,0.0,0.0,0.0,0.0,0.0,0.0,0.0,0.0,0.0,0.0,0.0,0.1016329853447325,0.10360060106978071,0.10524496070796013,0.10561251282387238,0.10383367986864224,0.0992919103671196,0.0919535147816775,0.08277956376146636,0.07360786319730485,0.06748198787524093,0.06830474785085812,0.08030642849357432,0.1073531547001359,0.15181299497550943,0.2139931679695242,0.2914943848961822,0.37908522990952054,0.46913805264176195,0.5525015242099653,0.619914053654248,0.6634534323064072,0.6778640313254668,0.6614242869088948,0.6163373878372423,0.5482317157229732,0.4651861058084577,0.37633673656956595,0.29029101693250076,0.21412819149730344,0.15225540136499335,0.10618824653055392,0.07480944181366504,0.054924005312577996,0.04270241086533457,0.03419494136375825,0.02625759518110979,0.01700684314678808,0.005751057411496382,-0.006808986433614241,-0.019505633933186044,-0.031111760334019103,-0.040795755520088885,-0.04851033184755285,-0.05456166104994194,-0.059823241946730096,-0.06525250759563951,-0.07152559417550151,-0.07891915774920666,-0.0867692154630157,-0.09405947747760378,-0.09957303575072166,-0.10225543283091414,-0.10168601244923152,-0.09776342639621198,-0.09117655643076372,-0.08305318631402081,-0.0746404135810936,-0.0671235942410958,-0.06087597630545783,-0.055844887145654436,-0.051492807586348055,0.0,0.0,0.0,0.0,0.0,0.0,0.0,0.0,0.0,0.0,0.0,0.0,0.0,0.0,0.0,0.0,0.0,0.0,0.0,0.0,0.0,0.0,0.0,0.0,0.0,0.0,0.0,0.0,0.0,0.0,0.0,0.0,0.0,0.0,0.0,0.0,0.0,0.0,0.0,0.0,0.0,0.0,0.0,0.0,0.0,0.0,0.0,0.0,0.0,0.0,0.0,0.0,0.0,0.0,0.0,0.0,0.0,0.0,0.0,0.0,0.0,0.0,0.0,0.0,0.0,0.0,0.0,0.0,0.0,0.0,0.0,0.0,0.0,0.0,0.0,0.0,0.0,0.0,0.0,0.0,0.0,0.0,0.0,0.0,0.0,0.0,0.0,0.0,0.0,0.0,0.0,0.0,0.0,0.0,0.0,0.0,0.0,0.0,0.0,0.0,0.0,0.0,0.0,0.0,0.0,0.0,0.0,0.0,0.0,0.0,0.0,0.0,0.0,0.0,0.0,0.0,0.0,0.0,0.0,0.0,0.0,0.0,0.0,0.0,0.0,0.0,0.0,0.0,0.0,0.0,0.0,0.0,0.0,0.0,0.0,0.0,0.0,0.0,0.0,0.0,0.0,0.0,0.0,0.0,0.0,0.0,0.0,0.0,0.0,0.0,0.0,0.0,0.0,0.0,0.0,0.0,0.0,0.0,0.0,0.0,0.0,0.0,0.0,0.0,0.0,0.0,0.0,0.0,0.0,0.0,0.0,0.0,0.0,0.0,0.0,0.0,0.0,0.0,0.0,0.0,0.0,0.0,0.0,0.0,0.0,0.0,0.0,0.0,0.0,0.0,0.0,0.0,0.0,0.0,0.0,0.0,0.0,0.0,0.0,0.0,0.0,0.0,0.0,0.0,0.0,0.0,0.0,0.0,0.0,0.0,0.0,0.0,0.0,0.0,0.0,0.0,0.0,0.0,0.0,0.0,0.0,0.0,0.0,0.0,0.0,0.0,0.0,0.0,0.0,0.0,0.0,0.0,0.0,0.0,0.0,0.0,0.0,0.0,0.0
-0.0014265601701093599,0.0006102037053262906,0.004840452246402846,0.01103915649094564,0.018679703326699586,0.027025457547066634,0.03519354001148082,0.04251730442796982,0.048474144287362055,0.05279815427495521,0.055477475264242626,0.05663575237303889,0.056650538041206726,0.05590737787072729,0.05477198087515552,0.05354419990086599,0.0522504305614492,0.051323471060903694,0.05086937499990595,0.050950435528983214,0.05161092453748935,0.052560780988594354,0.054300645134693175,0.05675176462042432,0.05972861762624434,0.06298276184452758,0.06587402569269508,0.0685819047936847,0.07098044415901827,0.07295134832457925,0.07435459915156582,0.07459755111999272,0.07388833084992949,0.07236946991097494,0.07031997127044422,0.0680882089369281,0.06579995858487908,0.0638788095071194,0.0625401397128332,0.06187007396162747,0.06182181872229036,0.062258336595711276,0.06297696615707395,0.06377005703843601,0.06448951705593657,0.065081531597492,0.06557329454044954,0.06607928946787282,0.06669969253865857,0.06747393268347428,0.06834124447269364,0.06910047798189185,0.06956383013293836,0.06954532724009942,0.06896059748425895,0.0678870019904609,0.06650908091900928,0.06531826446870449,0.0648169029590416,0.06544426145196097,0.06743275950822814,0.0,0.0,0.0,0.0,0.0,0.0,0.0,0.0,0.0,0.0,0.0,0.0,0.0,0.0,0.0,0.0,0.0,0.0,0.0,0.0,0.0,0.0,0.0,0.0,0.0,0.0,0.0,0.0,0.0,0.0,0.0,0.0,0.0,0.0,0.0,0.0,0.0,0.0,0.0,0.0,0.0,0.0,0.0,0.0,0.0,0.0,0.0,0.0,0.0,0.0,0.0,0.0,0.0,0.0,0.0,0.0,0.0,0.0,0.0,0.0,0.0,0.0,0.0,0.0,0.0,0.0,0.0,0.0,0.0,0.0,0.0,0.0,0.0,0.0,0.0,0.0,0.0,0.0,0.0,0.0,0.0,0.0,0.0,0.0,0.0,0.0,0.0,0.0,0.0,0.0,0.0,0.0,0.0,0.0,0.0,0.0,0.0,0.0,0.0,0.0,0.0,0.0,0.0,0.0,0.0,0.0,0.0,0.0,0.0,0.0,0.0,0.0,0.0,0.0,0.0,0.0,0.0,0.0,0.0,0.0,0.0,0.0,0.0,0.0,0.0,0.0,0.0,0.0,0.0,0.0,0.0,0.0,0.0,0.0,0.0,0.0,0.0,0.0,0.0,0.0,0.0,0.0,0.0,0.0,0.0,0.0,0.0,0.0,0.0,0.0,0.0,0.0,0.0,0.0,0.0,0.0,0.0,0.0,0.0,0.0,0.0,0.0,0.0,0.0,0.0,0.0,0.0,0.0,0.0,0.0,0.0,0.0,0.0,0.0,0.0,0.0,0.0,0.0,0.0,0.0,0.0,0.0,0.0,0.0,0.0,0.0,0.0,0.0,0.0,0.0,0.0,0.0,0.0,0.0,0.0,0.0,0.0,0.0,0.0,0.0,0.0,0.0,0.0,0.0,0.0,0.0,0.0,0.0,0.0,0.0,0.0,0.0,0.0,0.0,0.0,0.0,0.0,0.0,0.0,0.0,0.0,0.0,0.0,0.0,0.0,0.0,0.0,0.0,0.0,0.0,0.0,0.0,0.0,0.0,0.0,0.0,0.0,0.0,0.0,-0.10225543283091414,-0.10168601244923152,-0.09776342639621198,-0.09117655643076372,-0.08305318631402081,-0.0746404135810936,-0.0671235942410958,-0.06087597630545783,-0.055844887145654436,-0.051492807586348055,-0.04702539433127308,-0.041840547811546384,-0.035279200889483095,-0.02724489897512574,-0.018069220648939607,-0.00838407838504998,0.0007745746081758093,0.009300157357198904,0.01693512692581752,0.023777154106705837,0.03025723756117312,0.0365297192170587,0.04397363998159049,0.052954911688375655,0.06342432607319119,0.07494016768543629,0.08604208367695326,0.09668744037822986,0.10620746611709286,0.11401457344446353,0.11962309780969947,0.12169152347104513,0.12095954342723132,0.11798314696965097,0.11363300316707999,0.10889689544706391,0.10402270532502081,0.10017768191590067,0.09788597717163344,0.0972985176004987,0.0981706930844283,0.09965825290271084,0.10129309021101351,0.10260513138376964,0.10338601946725276,0.10371840677154616,0.1037816342356351,0.10404952436972434,0.10494426409439765,0.10670037403726101,0.109266120458664,0.1123401587747861,0.11534566821287812,0.11782453964424049,0.11952972989231458,0.12053437283005522,0.12125111944452707,0.12224437941747011,0.12415452403770118,0.12737358954593486,0.13180262520144648,0.0,0.0,0.0,0.0,0.0,0.0,0.0,0.0,0.0,0.0,0.0,0.0,0.0,0.0,0.0,0.0,0.0,0.0,0.0,0.0,0.0,0.0,0.0,0.0,0.0,0.0,0.0,0.0,0.0,0.0,0.0,0.0,0.0,0.0,0.0,0.0,0.0,0.0,0.0,0.0,0.0,0.0,0.0,0.0,0.0,0.0,0.0,0.0,0.0,0.0,0.0,0.0,0.0,0.0,0.0,0.0,0.0,0.0,0.0,0.0,0.0,0.0,0.0,0.0,0.0,0.0,0.0,0.0,0.0,0.0,0.0,0.0,0.0,0.0,0.0,0.0,0.0,0.0,0.0,0.0,0.0,0.0,0.0,0.0,0.0,0.0,0.0,0.0,0.0,0.0,0.0,0.0,0.0,0.0,0.0,0.0,0.0,0.0,0.0,0.0,0.0,0.0,0.0,0.0,0.0,0.0,0.0,0.0,0.0,0.0,0.0,0.0,0.0,0.0,0.0,0.0,0.0,0.0,0.0,0.0,0.0,0.0,0.0,0.0,0.0,0.0,0.0,0.0,0.0,0.0,0.0,0.0,0.0,0.0,0.0,0.0,0.0,0.0,0.0,0.0,0.0,0.0,0.0,0.0,0.0,0.0,0.0,0.0,0.0,0.0,0.0,0.0,0.0,0.0,0.0,0.0,0.0,0.0,0.0,0.0,0.0,0.0,0.0,0.0,0.0,0.0,0.0,0.0,0.0,0.0,0.0,0.0,0.0,0.0,0.0,0.0,0.0,0.0,0.0,0.0,0.0,0.0,0.0,0.0,0.0,0.0,0.0,0.0,0.0,0.0,0.0,0.0,0.0,0.0,0.0,0.0,0.0,0.0,0.0,0.0,0.0,0.0,0.0,0.0,0.0,0.0,0.0,0.0,0.0,0.0,0.0,0.0,0.0,0.0,0.0,0.0,0.0,0.0,0.0,0.0,0.0,0.0,0.0,0.0,0.0,0.0,0.0,0.0,0.0,0.0,0.0,0.0,0.0,0.0,0.0,0.0,0.0,0.0,0.0
0.06910047798189185,0.06956383013293836,0.06954532724009942,0.06896059748425895,0.0678870019904609,0.06650908091900928,0.06531826446870449,0.0648169029590416,0.06544426145196097,0.06743275950822814,0.07058726485185647,0.07460650379316427,0.07882658882319647,0.08249677060872686,0.08503895608626756,0.08622843332539468,0.08677973653503478,0.0881472892367857,0.09254442643899773,0.10264515266430699,0.12098140598136525,0.14965144119383117,0.1893881542902053,0.2391627321102797,0.2959684529709693,0.35485532082005866,0.40981403652008735,0.4542798994837053,0.48225148904562254,0.4892917532776315,0.4731993142958191,0.4348097277023479,0.37758122575629766,0.30720662997550746,0.23074725874506824,0.15544729199249552,0.08805020900186712,0.033555077958850446,-0.005222266883971324,-0.02779723578749506,-0.03589347849549123,-0.032505428979194624,-0.021526895782510765,-0.0068927860178328365,0.008055404554530167,0.020864239845117354,0.0305230503286788,0.037000384596258824,0.041067879077844135,0.04390804489655539,0.04658848310379616,0.05015321224595932,0.05505586493558567,0.061240604092694086,0.06823641210695373,0.07521851648031573,0.08158193936079958,0.08675923231859746,0.09043385639559667,0.09256477931735207,0.09323708577918481,0.0,0.0,0.0,0.0,0.0,0.0,0.0,0.0,0.0,0.0,0.0,0.0,0.0,0.0,0.0,0.0,0.0,0.0,0.0,0.0,0.0,0.0,0.0,0.0,0.0,0.0,0.0,0.0,0.0,0.0,0.0,0.0,0.0,0.0,0.0,0.0,0.0,0.0,0.0,0.0,0.0,0.0,0.0,0.0,0.0,0.0,0.0,0.0,0.0,0.0,0.0,0.0,0.0,0.0,0.0,0.0,0.0,0.0,0.0,0.0,0.0,0.0,0.0,0.0,0.0,0.0,0.0,0.0,0.0,0.0,0.0,0.0,0.0,0.0,0.0,0.0,0.0,0.0,0.0,0.0,0.0,0.0,0.0,0.0,0.0,0.0,0.0,0.0,0.0,0.0,0.0,0.0,0.0,0.0,0.0,0.0,0.0,0.0,0.0,0.0,0.0,0.0,0.0,0.0,0.0,0.0,0.0,0.0,0.0,0.0,0.0,0.0,0.0,0.0,0.0,0.0,0.0,0.0,0.0,0.0,0.0,0.0,0.0,0.0,0.0,0.0,0.0,0.0,0.0,0.0,0.0,0.0,0.0,0.0,0.0,0.0,0.0,0.0,0.0,0.0,0.0,0.0,0.0,0.0,0.0,0.0,0.0,0.0,0.0,0.0,0.0,0.0,0.0,0.0,0.0,0.0,0.0,0.0,0.0,0.0,0.0,0.0,0.0,0.0,0.0,0.0,0.0,0.0,0.0,0.0,0.0,0.0,0.0,0.0,0.0,0.0,0.0,0.0,0.0,0.0,0.0,0.0,0.0,0.0,0.0,0.0,0.0,0.0,0.0,0.0,0.0,0.0,0.0,0.0,0.0,0.0,0.0,0.0,0.0,0.0,0.0,0.0,0.0,0.0,0.0,0.0,0.0,0.0,0.0,0.0,0.0,0.0,0.0,0.0,0.0,0.0,0.0,0.0,0.0,0.0,0.0,0.0,0.0,0.0,0.0,0.0,0.0,0.0,0.0,0.0,0.0,0.0,0.0,0.0,0.0,0.0,0.0,0.0,0.0,0.1123401587747861,0.11534566821287812,0.11782453964424049,0.11952972989231458,0.12053437283005522,0.12125111944452707,0.12224437941747011,0.12415452403770118,0.12737358954593486,0.13180262520144648,0.1367263712996196,0.14087025954138332,0.14274907481794563,0.14111303057916566,0.13552511393987993,0.1269122901736054,0.11793583242335413,0.1130365015222092,0.11802880994315945,0.1392476026783135,0.1823400397614499,0.25092257150723524,0.3453223459004276,0.4618292306673579,0.5926243169873361,0.7264923901517936,0.8504246389027904,0.9514544331928236,1.0188603703296069,1.0460010312963586,1.0313872992618986,0.9790580002598908,0.8974533776413631,0.7978825864492327,0.6924424605551843,0.5918183607801081,0.5040261371575041,0.43307632807525975,0.3790590799986435,0.33888388981401,0.3073809403881637,0.2793666826685738,0.2504333447228455,0.2180218765330191,0.18175808164803695,0.14302347744699315,0.10491470168916733,0.07076319025783587,0.04342895791591722,0.024632273482063892,0.014418462439450939,0.011888272284642225,0.014939479995988502,0.021008554063981538,0.02764693833774441,0.032771801776727914,0.035561864183929294,0.035821210616898476,0.03395812026338417,0.030661603193424935,0.02638482987897278,0.0,0.0,0.0,0.0,0.0,0.0,0.0,0.0,0.0,0.0,0.0,0.0,0.0,0.0,0.0,0.0,0.0,0.0,0.0,0.0,0.0,0.0,0.0,0.0,0.0,0.0,0.0,0.0,0.0,0.0,0.0,0.0,0.0,0.0,0.0,0.0,0.0,0.0,0.0,0.0,0.0,0.0,0.0,0.0,0.0,0.0,0.0,0.0,0.0,0.0,0.0,0.0,0.0,0.0,0.0,0.0,0.0,0.0,0.0,0.0,0.0,0.0,0.0,0.0,0.0,0.0,0.0,0.0,0.0,0.0,0.0,0.0,0.0,0.0,0.0,0.0,0.0,0.0,0.0,0.0,0.0,0.0,0.0,0.0,0.0,0.0,0.0,0.0,0.0,0.0,0.0,0.0,0.0,0.0,0.0,0.0,0.0,0.0,0.0,0.0,0.0,0.0,0.0,0.0,0.0,0.0,0.0,0.0,0.0,0.0,0.0,0.0,0.0,0.0,0.0,0.0,0.0,0.0,0.0,0.0,0.0,0.0,0.0,0.0,0.0,0.0,0.0,0.0,0.0,0.0,0.0,0.0,0.0,0.0,0.0,0.0,0.0,0.0,0.0,0.0,0.0,0.0,0.0,0.0,0.0,0.0,0.0,0.0,0.0,0.0,0.0,0.0,0.0,0.0,0.0,0.0,0.0,0.0,0.0,0.0,0.0,0.0,0.0,0.0,0.0,0.0,0.0,0.0,0.0,0.0,0.0,0.0,0.0,0.0,0.0,0.0,0.0,0.0,0.0,0.0,0.0,0.0,0.0,0.0,0.0,0.0,0.0,0.0,0.0,0.0,0.0,0.0,0.0,0.0,0.0,0.0,0.0,0.0,0.0,0.0,0.0,0.0,0.0,0.0,0.0,0.0,0.0,0.0,0.0,0.0,0.0,0.0,0.0,0.0,0.0,0.0,0.0,0.0,0.0,0.0,0.0,0.0,0.0,0.0,0.0,0.0,0.0,0.0,0.0,0.0,0.0,0.0,0.0,0.0,0.0,0.0,0.0,0.0,0.0
0.05015321224595932,0.05505586493558567,0.061240604092694086,0.06823641210695373,0.07521851648031573,0.08158193936079958,0.08675923231859746,0.09043385639559667,0.09256477931735207,0.09323708577918481,0.09290572409794728,0.09196730471289827,0.090776191856536,0.08959401841716856,0.08844026561548497,0.08754424510945613,0.08694572391357959,0.08664687373947322,0.08662325751698507,0.08665647265309986,0.08687381258378339,0.08722549456592275,0.08764996154145559,0.08808538116609384,0.08822795771409377,0.08842792836840316,0.08869915258525599,0.08906082467356756,0.08954750481520257,0.08986055219024901,0.09057640957734213,0.09165971284433408,0.09298822152627216,0.09440833095719665,0.09542855845100208,0.09638915378804007,0.09732740786505224,0.09828554737827154,0.09926915709919074,0.0998553508819603,0.10026195223930455,0.10058338794966915,0.1009555720177672,0.10149728967608078,0.1020268660130789,0.10266149607332871,0.10329839730987357,0.10374172809987785,0.10372542225297082,0.1028929553890519,0.101094724215035,0.09824039297100706,0.09442221695907378,0.08993650298095983,0.08516368015207482,0.08081826310471858,0.07753568361464594,0.07586008835307273,0.07614758370894885,0.07838032577253777,0.08255704669927953,0.0,0.0,0.0,0.0,0.0,0.0,0.0,0.0,0.0,0.0,0.0,0.0,0.0,0.0,0.0,0.0,0.0,0.0,0.0,0.0,0.0,0.0,0.0,0.0,0.0,0.0,0.0,0.0,0.0,0.0,0.0,0.0,0.0,0.0,0.0,0.0,0.0,0.0,0.0,0.0,0.0,0.0,0.0,0.0,0.0,0.0,0.0,0.0,0.0,0.0,0.0,0.0,0.0,0.0,0.0,0.0,0.0,0.0,0.0,0.0,0.0,0.0,0.0,0.0,0.0,0.0,0.0,0.0,0.0,0.0,0.0,0.0,0.0,0.0,0.0,0.0,0.0,0.0,0.0,0.0,0.0,0.0,0.0,0.0,0.0,0.0,0.0,0.0,0.0,0.0,0.0,0.0,0.0,0.0,0.0,0.0,0.0,0.0,0.0,0.0,0.0,0.0,0.0,0.0,0.0,0.0,0.0,0.0,0.0,0.0,0.0,0.0,0.0,0.0,0.0,0.0,0.0,0.0,0.0,0.0,0.0,0.0,0.0,0.0,0.0,0.0,0.0,0.0,0.0,0.0,0.0,0.0,0.0,0.0,0.0,0.0,0.0,0.0,0.0,0.0,0.0,0.0,0.0,0.0,0.0,0.0,0.0,0.0,0.0,0.0,0.0,0.0,0.0,0.0,0.0,0.0,0.0,0.0,0.0,0.0,0.0,0.0,0.0,0.0,0.0,0.0,0.0,0.0,0.0,0.0,0.0,0.0,0.0,0.0,0.0,0.0,0.0,0.0,0.0,0.0,0.0,0.0,0.0,0.0,0.0,0.0,0.0,0.0,0.0,0.0,0.0,0.0,0.0,0.0,0.0,0.0,0.0,0.0,0.0,0.0,0.0,0.0,0.0,0.0,0.0,0.0,0.0,0.0,0.0,0.0,0.0,0.0,0.0,0.0,0.0,0.0,0.0,0.0,0.0,0.0,0.0,0.0,0.0,0.0,0.0,0.0,0.0,0.0,0.0,0.0,0.0,0.0,0.0,0.0,0.0,0.0,0.0,0.0,0.0,0.011888272284642225,0.014939479995988502,0.021008554063981538,0.02764693833774441,0.032771801776727914,0.035561864183929294,0.035821210616898476,0.03395812026338417,0.030661603193424935,0.02638482987897278,0.02176892177510937,0.016954883381677246,0.011868410224170374,0.0064011311982046775,0.0003915398033872868,-0.005620747907412094,-0.01106853021768311,-0.015311992389904184,-0.017859340797015576,-0.018774112973724475,-0.01810483898906385,-0.016489348244929706,-0.01474923167426657,-0.01359998783626519,-0.013823864582373517,-0.01447794059009052,-0.014751187648653531,-0.013467054574031422,-0.0093406348755148,-0.0020213052013429403,0.01014477851183463,0.026839714696528537,0.04689785664129911,0.06859790274057136,0.08937379220756246,0.1084659013485164,0.12468946997109788,0.13740198747831278,0.14653644035665753,0.15187764322779124,0.15491201190126205,0.1567055973057739,0.1582461349950976,0.16024566320426278,0.16265484433950128,0.16573946306574086,0.16908768700188487,0.17205648945598617,0.17395488605186807,0.17416089374422739,0.17248271695665138,0.16903844516048985,0.16428718812599777,0.15892148598329514,0.15366436589219432,0.1492361950882975,0.14608406056137657,0.14435204292187434,0.14388808591472216,0.14430412542110121,0.14515390546620616,0.0,0.0,0.0,0.0,0.0,0.0,0.0,0.0,0.0,0.0,0.0,0.0,0.0,0.0,0.0,0.0,0.0,0.0,0.0,0.0,0.0,0.0,0.0,0.0,0.0,0.0,0.0,0.0,0.0,0.0,0.0,0.0,0.0,0.0,0.0,0.0,0.0,0.0,0.0,0.0,0.0,0.0,0.0,0.0,0.0,0.0,0.0,0.0,0.0,0.0,0.0,0.0,0.0,0.0,0.0,0.0,0.0,0.0,0.0,0.0,0.0,0.0,0.0,0.0,0.0,0.0,0.0,0.0,0.0,0.0,0.0,0.0,0.0,0.0,0.0,0.0,0.0,0.0,0.0,0.0,0.0,0.0,0.0,0.0,0.0,0.0,0.0,0.0,0.0,0.0,0.0,0.0,0.0,0.0,0.0,0.0,0.0,0.0,0.0,0.0,0.0,0.0,0.0,0.0,0.0,0.0,0.0,0.0,0.0,0.0,0.0,0.0,0.0,0.0,0.0,0.0,0.0,0.0,0.0,0.0,0.0,0.0,0.0,0.0,0.0,0.0,0.0,0.0,0.0,0.0,0.0,0.0,0.0,0.0,0.0,0.0,0.0,0.0,0.0,0.0,0.0,0.0,0.0,0.0,0.0,0.0,0.0,0.0,0.0,0.0,0.0,0.0,0.0,0.0,0.0,0.0,0.0,0.0,0.0,0.0,0.0,0.0,0.0,0.0,0.0,0.0,0.0,0.0,0.0,0.0,0.0,0.0,0.0,0.0,0.0,0.0,0.0,0.0,0.0,0.0,0.0,0.0,0.0,0.0,0.0,0.0,0.0,0.0,0.0,0.0,0.0,0.0,0.0,0.0,0.0,0.0,0.0,0.0,0.0,0.0,0.0,0.0,0.0,0.0,0.0,0.0,0.0,0.0,0.0,0.0,0.0,0.0,0.0,0.0,0.0,0.0,0.0,0.0,0.0,0.0,0.0,0.0,0.0,0.0,0.0,0.0,0.0,0.0,0.0,0.0,0.0,0.0,0.0,0.0,0.0,0.0,0.0,0.0,0.0
0.08081826310471858,0.07753568361464594,0.07586008835307273,0.07614758370894885,0.07838032577253777,0.08255704669927953,0.0883181123344385,0.09514520862110494,0.1024508506268398,0.10953818993162184,0.11605828786625419,0.12162823055055764,0.12594468383189633,0.12875411754473076,0.12970423704224526,0.12874043691688417,0.1257533083710009,0.12079348179404234,0.1141983175299774,0.10661291945744443,0.09943206913766554,0.0944306751956202,0.09375217666267988,0.09964251751522407,0.11397006321004996,0.13809064474725033,0.1720874899367029,0.21458942391313213,0.26270286289030004,0.31211547238167175,0.35791814694258783,0.39493029649529093,0.4186042271249469,0.42576320826537606,0.41503028532364816,0.38743131085454496,0.34587726146994335,0.29483188016141165,0.23961358390094872,0.1854616722085053,0.13719770915002857,0.09820685652663025,0.07025464449587619,0.053463959536521354,0.046411462994846796,0.047033366379134,0.052667506754123135,0.06069818980345382,0.06894949366251366,0.0757862443056951,0.08061288908126603,0.08335877029474728,0.0844215297401911,0.08443502778850596,0.08392688737189541,0.08354905270051198,0.08360644906911395,0.08416106907208538,0.08507718725727512,0.08596146869086362,0.08668812020704177,0.0,0.0,0.0,0.0,0.0,0.0,0.0,0.0,0.0,0.0,0.0,0.0,0.0,0.0,0.0,0.0,0.0,0.0,0.0,0.0,0.0,0.0,0.0,0.0,0.0,0.0,0.0,0.0,0.0,0.0,0.0,0.0,0.0,0.0,0.0,0.0,0.0,0.0,0.0,0.0,0.0,0.0,0.0,0.0,0.0,0.0,0.0,0.0,0.0,0.0,0.0,0.0,0.0,0.0,0.0,0.0,0.0,0.0,0.0,0.0,0.0,0.0,0.0,0.0,0.0,0.0,0.0,0.0,0.0,0.0,0.0,0.0,0.0,0.0,0.0,0.0,0.0,0.0,0.0,0.0,0.0,0.0,0.0,0.0,0.0,0.0,0.0,0.0,0.0,0.0,0.0,0.0,0.0,0.0,0.0,0.0,0.0,0.0,0.0,0.0,0.0,0.0,0.0,0.0,0.0,0.0,0.0,0.0,0.0,0.0,0.0,0.0,0.0,0.0,0.0,0.0,0.0,0.0,0.0,0.0,0.0,0.0,0.0,0.0,0.0,0.0,0.0,0.0,0.0,0.0,0.0,0.0,0.0,0.0,0.0,0.0,0.0,0.0,0.0,0.0,0.0,0.0,0.0,0.0,0.0,0.0,0.0,0.0,0.0,0.0,0.0,0.0,0.0,0.0,0.0,0.0,0.0,0.0,0.0,0.0,0.0,0.0,0.0,0.0,0.0,0.0,0.0,0.0,0.0,0.0,0.0,0.0,0.0,0.0,0.0,0.0,0.0,0.0,0.0,0.0,0.0,0.0,0.0,0.0,0.0,0.0,0.0,0.0,0.0,0.0,0.0,0.0,0.0,0.0,0.0,0.0,0.0,0.0,0.0,0.0,0.0,0.0,0.0,0.0,0.0,0.0,0.0,0.0,0.0,0.0,0.0,0.0,0.0,0.0,0.0,0.0,0.0,0.0,0.0,0.0,0.0,0.0,0.0,0.0,0.0,0.0,0.0,0.0,0.0,0.0,0.0,0.0,0.0,0.0,0.0,0.0,0.0,0.0,0.0,0.1492361950882975,0.14608406056137657,0.14435204292187434,0.14388808591472216,0.14430412542110121,0.14515390546620616,0.14598631604587184,0.14648792192190435,0.1465560054011202,0.14631345622520647,0.14607456964179383,0.14624480537840967,0.14721094011200306,0.14922392488751823,0.15231833024454436,0.15622637445658585,0.16046397471259227,0.16442997480350052,0.16760163517589605,0.1698010460187663,0.1713531067970851,0.1733105481949528,0.1774318104161984,0.18597934546427375,0.2013476893619202,0.22539864492772713,0.2589551326991667,0.3012839623192901,0.34985271310788263,0.4004078021549225,0.44757222279814396,0.48548018479658517,0.5088086656780885,0.5137260807514914,0.4985186219367889,0.46425710400324505,0.41425043740938156,0.35363785458146874,0.28853066916518066,0.22486168045726346,0.16798943898943922,0.12142302129277971,0.08667795930789182,0.06333525757886983,0.04921684771851639,0.041741814281954864,0.037876040293757636,0.03499114521411098,0.031296947814052116,0.02579529737721057,0.018911099498493483,0.011486598467825472,0.0046149315374006605,-0.000741361950765605,-0.004246211733950712,-0.005609766341127676,-0.005230919045108152,-0.0038116287923939647,-0.0021268409397111605,-0.0010187813338221456,-0.0006172774721581706,0.0,0.0,0.0,0.0,0.0,0.0,0.0,0.0,0.0,0.0,0.0,0.0,0.0,0.0,0.0,0.0,0.0,0.0,0.0,0.0,0.0,0.0,0.0,0.0,0.0,0.0,0.0,0.0,0.0,0.0,0.0,0.0,0.0,0.0,0.0,0.0,0.0,0.0,0.0,0.0,0.0,0.0,0.0,0.0,0.0,0.0,0.0,0.0,0.0,0.0,0.0,0.0,0.0,0.0,0.0,0.0,0.0,0.0,0.0,0.0,0.0,0.0,0.0,0.0,0.0,0.0,0.0,0.0,0.0,0.0,0.0,0.0,0.0,0.0,0.0,0.0,0.0,0.0,0.0,0.0,0.0,0.0,0.0,0.0,0.0,0.0,0.0,0.0,0.0,0.0,0.0,0.0,0.0,0.0,0.0,0.0,0.0,0.0,0.0,0.0,0.0,0.0,0.0,0.0,0.0,0.0,0.0,0.0,0.0,0.0,0.0,0.0,0.0,0.0,0.0,0.0,0.0,0.0,0.0,0.0,0.0,0.0,0.0,0.0,0.0,0.0,0.0,0.0,0.0,0.0,0.0,0.0,0.0,0.0,0.0,0.0,0.0,0.0,0.0,0.0,0.0,0.0,0.0,0.0,0.0,0.0,0.0,0.0,0.0,0.0,0.0,0.0,0.0,0.0,0.0,0.0,0.0,0.0,0.0,0.0,0.0,0.0,0.0,0.0,0.0,0.0,0.0,0.0,0.0,0.0,0.0,0.0,0.0,0.0,0.0,0.0,0.0,0.0,0.0,0.0,0.0,0.0,0.0,0.0,0.0,0.0,0.0,0.0,0.0,0.0,0.0,0.0,0.0,0.0,0.0,0.0,0.0,0.0,0.0,0.0,0.0,0.0,0.0,0.0,0.0,0.0,0.0,0.0,0.0,0.0,0.0,0.0,0.0,0.0,0.0,0.0,0.0,0.0,0.0,0.0,0.0,0.0,0.0,0.0,0.0,0.0,0.0,0.0,0.0,0.0,0.0,0.0,0.0,0.0,0.0,0.0,0.0,0.0,0.0
0.08335877029474728,0.0844215297401911,0.08443502778850596,0.08392688737189541,0.08354905270051198,0.08360644906911395,0.08416106907208538,0.08507718725727512,0.08596146869086362,0.08668812020704177,0.08700923972758337,0.08673014434645733,0.08571934672604428,0.08375426236220514,0.08101156200334693,0.07755120296252306,0.07349656481921535,0.06905333614414554,0.06437173132194515,0.05999628154454502,0.05633169391491676,0.05372394401241432,0.052387325562246796,0.05221340931726313,0.05319975553278794,0.05503299946133045,0.057302502110703396,0.05960041332866495,0.06116148333169434,0.06240670417850541,0.06353964136484443,0.06489590030207289,0.0668135010950831,0.06871405893373819,0.0715181617681905,0.0752479653801544,0.07974957835879307,0.08473271055035558,0.08941618711995226,0.09384763208292216,0.09770558368963328,0.10070834894293376,0.10265192000562806,0.10343258104323412,0.10312393487198027,0.1018844134407317,0.09998826436137033,0.09779491184433826,0.09564818860784817,0.09396408722141975,0.09295814531478636,0.09266592186214455,0.09293790368304844,0.09340301065563689,0.09382094990219275,0.0938900619650626,0.09344714594493389,0.09253551208654963,0.09130799082137492,0.09030149735020172,0.0899556800075747,0.0,0.0,0.0,0.0,0.0,0.0,0.0,0.0,0.0,0.0,0.0,0.0,0.0,0.0,0.0,0.0,0.0,0.0,0.0,0.0,0.0,0.0,0.0,0.0,0.0,0.0,0.0,0.0,0.0,0.0,0.0,0.0,0.0,0.0,0.0,0.0,0.0,0.0,0.0,0.0,0.0,0.0,0.0,0.0,0.0,0.0,0.0,0.0,0.0,0.0,0.0,0.0,0.0,0.0,0.0,0.0,0.0,0.0,0.0,0.0,0.0,0.0,0.0,0.0,0.0,0.0,0.0,0.0,0.0,0.0,0.0,0.0,0.0,0.0,0.0,0.0,0.0,0.0,0.0,0.0,0.0,0.0,0.0,0.0,0.0,0.0,0.0,0.0,0.0,0.0,0.0,0.0,0.0,0.0,0.0,0.0,0.0,0.0,0.0,0.0,0.0,0.0,0.0,0.0,0.0,0.0,0.0,0.0,0.0,0.0,0.0,0.0,0.0,0.0,0.0,0.0,0.0,0.0,0.0,0.0,0.0,0.0,0.0,0.0,0.0,0.0,0.0,0.0,0.0,0.0,0.0,0.0,0.0,0.0,0.0,0.0,0.0,0.0,0.0,0.0,0.0,0.0,0.0,0.0,0.0,0.0,0.0,0.0,0.0,0.0,0.0,0.0,0.0,0.0,0.0,0.0,0.0,0.0,0.0,0.0,0.0,0.0,0.0,0.0,0.0,0.0,0.0,0.0,0.0,0.0,0.0,0.0,0.0,0.0,0.0,0.0,0.0,0.0,0.0,0.0,0.0,0.0,0.0,0.0,0.0,0.0,0.0,0.0,0.0,0.0,0.0,0.0,0.0,0.0,0.0,0.0,0.0,0.0,0.0,0.0,0.0,0.0,0.0,0.0,0.0,0.0,0.0,0.0,0.0,0.0,0.0,0.0,0.0,0.0,0.0,0.0,0.0,0.0,0.0,0.0,0.0,0.0,0.0,0.0,0.0,0.0,0.0,0.0,0.0,0.0,0.0,0.0,0.0,0.0,0.0,0.0,0.0,0.0,0.0,0.011486598467825472,0.0046149315374006605,-0.000741361950765605,-0.004246211733950712,-0.005609766341127676,-0.005230919045108152,-0.0038116287923939647,-0.0021268409397111605,-0.0010187813338221456,-0.0006172774721581706,-0.0009876311818424947,-0.0020097904057302736,-0.003512319928656717,-0.005583579051205391,-0.00802139426711375,-0.010939151808490937,-0.01446518568766013,-0.018606080112651538,-0.023357579983340468,-0.02795317035616726,-0.031671798667427135,-0.03377290861807347,-0.03369984029664637,-0.03151051125649363,-0.02713296004708801,-0.021160338308157143,-0.014429159849317441,-0.007779651030086494,-0.0025470774144321726,0.0019499814983374734,0.006276758675675481,0.0113515889810089,0.018140538236473373,0.026101857069136362,0.036783953232449595,0.050232041030181876,0.06598639598863218,0.08315405590462228,0.09982031210418381,0.11547645087515838,0.12916229633298884,0.14017970531461516,0.1481675735727712,0.1529084587192273,0.15497912239560935,0.1551021364197448,0.1541808301911807,0.15312660236762854,0.15255828155255083,0.1529815861029315,0.15439292338864946,0.15635310709007852,0.15808563116248583,0.15866520679277277,0.15728646283108383,0.1535015481489178,0.14740429978175176,0.13968872943609323,0.1315550878400553,0.1244776168600442,0.11986890687386165,0.0,0.0,0.0,0.0,0.0,0.0,0.0,0.0,0.0,0.0,0.0,0.0,0.0,0.0,0.0,0.0,0.0,0.0,0.0,0.0,0.0,0.0,0.0,0.0,0.0,0.0,0.0,0.0,0.0,0.0,0.0,0.0,0.0,0.0,0.0,0.0,0.0,0.0,0.0,0.0,0.0,0.0,0.0,0.0,0.0,0.0,0.0,0.0,0.0,0.0,0.0,0.0,0.0,0.0,0.0,0.0,0.0,0.0,0.0,0.0,0.0,0.0,0.0,0.0,0.0,0.0,0.0,0.0,0.0,0.0,0.0,0.0,0.0,0.0,0.0,0.0,0.0,0.0,0.0,0.0,0.0,0.0,0.0,0.0,0.0,0.0,0.0,0.0,0.0,0.0,0.0,0.0,0.0,0.0,0.0,0.0,0.0,0.0,0.0,0.0,0.0,0.0,0.0,0.0,0.0,0.0,0.0,0.0,0.0,0.0,0.0,0.0,0.0,0.0,0.0,0.0,0.0,0.0,0.0,0.0,0.0,0.0,0.0,0.0,0.0,0.0,0.0,0.0,0.0,0.0,0.0,0.0,0.0,0.0,0.0,0.0,0.0,0.0,0.0,0.0,0.0,0.0,0.0,0.0,0.0,0.0,0.0,0.0,0.0,0.0,0.0,0.0,0.0,0.0,0.0,0.0,0.0,0.0,0.0,0.0,0.0,0.0,0.0,0.0,0.0,0.0,0.0,0.0,0.0,0.0,0.0,0.0,0.0,0.0,0.0,0.0,0.0,0.0,0.0,0.0,0.0,0.0,0.0,0.0,0.0,0.0,0.0,0.0,0.0,0.0,0.0,0.0,0.0,0.0,0.0,0.0,0.0,0.0,0.0,0.0,0.0,0.0,0.0,0.0,0.0,0.0,0.0,0.0,0.0,0.0,0.0,0.0,0.0,0.0,0.0,0.0,0.0,0.0,0.0,0.0,0.0,0.0,0.0,0.0,0.0,0.0,0.0,0.0,0.0,0.0,0.0,0.0,0.0,0.0,0.0,0.0,0.0,0.0,0.0
