-0.03879674139048241,0.006004092820486079,0.033775327885089954,-0.013553246127200737,-0.034368015736203246,0.02697628595331892,0.05676638079635983,0.023550306338756155,-0.004926552133113268,0.029403255201213657,0.06605437918343582,0.003410598352839611,-0.04723264930671477,0.02300060270704466,0.14637063471054804,0.25997652087440426,0.383178054088321,0.6006589969315003,0.8083837506623657,0.8926358955299712,0.7711478774363687,0.5334289435344652,0.26656503080918503,-0.00042749718557578525,-0.2095001565779197,0.002246835119410214,0.06624320789899102,0.04297683195424793,-0.014323117023222027,0.012897591346117001,0.04721873942162215,0.04751186150363748,-0.020093380915401516,-0.005589027329051915,0.04263952849542391,0.03991560731941627,-0.018595687149650854,-0.036112364781347696,0.023662970430128355,0.025249880734900827,-0.016826015358791795,-0.02997231930580468,0.02937151276731125,0.037826516531198166,0.0026641199431315953,-0.010777531885885412,0.03622569411999152,0.06626514232951619,0.028545974697530434,0.007762469854554189,0.05715585612948275,0.094477875037472,0.05199670888597475,0.031341877594805764,0.07365628038532912,0.1087877560540935,0.07384213840203416,0.05593089186427333,0.08651765980752742,0.12932108194335867,0.11176754896608623,0.09193334410881714,0.12305528290972112,0.17610827066797483,0.1543218734056454,0.13028658660518386,0.14513922656792314,0.2109825050191081,0.20926786884365356,0.17629079344410897,0.20399315974139323,0.2512459736296644,0.23578849575114552,0.18181472537642646,0.1981983878344869,0.2292893982361348,0.20733940855725758,0.15169928375621647,0.1518830305236211,0.1812700844810423,0.1721083965487621,0.0880979188683912,0.06713846189848743,0.11163994760662432,0.1006197864096572,0.024389734240130783,0.011169946361643718,0.05852991694492612,0.0575830894527412,-0.0061986625864789225,-0.02879048655853327,0.02608833502302988,0.04229562573932176,-0.004371652983564071,-0.029241301910831723,0.0160674770704045,0.03719044870953334,-0.004589250723728273,-0.027015949482094535,0.011035734874402837,0.04665721087129431,0.014520377426839605,-0.01521365182536603,0.01309943757480796,0.04381050166898808,0.009173058858631641,-0.01823123464873018,-0.004532039368400508,0.050270354151261666,0.02520336447582506,-0.009568941321808796,0.020956286671631425,0.07081008598903032,0.0335370286669323,-0.011020676306637108,0.02665683008558943,0.0667286438233909,0.04870936303116577,0.004052520476750538,0.02469776609607282,0.057417463846682885,0.06108112634028159,-0.0030225664701531334,0.010273296536039568,0.052579559335635434,0.0682486512531388,0.008891102001046034,-0.006940544378261875,0.044947488986832554,0.06293800803265773,0.005899954673003462,-0.017291869295413265,0.05384821985242591,0.05721774113826792,0.004914663201689963,-0.00870188083416407,0.02120740372247233,0.05593245852731279,0.008374030627127103,-0.01984996716310021,0.034167065243922,0.06881071253782077,0.030855477144821796,-0.0071128522754071,0.0420080852309935,0.05966769990816839,0.03135173238947466,-0.009065286458305217,0.025519014902066567,0.06252387692268922,0.043885139032164844,-0.013458584673805484,0.004209277618634069,0.043664220715742226,0.049262263948793364,-0.005607338528886846,-0.002388313159517483,0.04198669831045275,0.04042110259503439,0.002596273618596279,-0.006159164942292082,0.04077212675003049,0.0756493509386411,0.03557041486317534,0.041511384089829025,0.11041160590308512,0.13823749860069373,0.12015255999482165,0.12148377513943368,0.15674898532517317,0.20175415356626783,0.16697918955991997,0.14678153080587883,0.18712869133602078,0.20333691213037075,0.15427167824022942,0.09315618074759023,0.12644083680517298,0.15492197135411254,0.10600927584591835,0.06437620498099911,0.08082332141303682,0.11905050648522356,0.09436814885221917,0.02612258234578985,0.030437846100807298,0.05649549306609038,0.05347692400122745,-0.01733947066867782,-0.015635940187019224,0.03680346673657431,0.033515281805922933,-0.02792760686284836,-0.016882485157230058,0.03277311301339466,0.046032532289596424,-0.0013025035530980387,-0.014877233900607495,0.036757410455484536,0.056820827345214014,-0.012756498330895568,-0.046165829203142716,0.012238605536224653,0.10923151316190133,0.18916808532695842,0.31737568895671353,0.5422445641358841,0.762157189497775,0.8730738780242748,0.8386958559120189,0.661431254845792,0.38723419274583254,0.1007667512336437,-0.1326665596690051,-0.19695319077357967,0.07967946228933656,0.04882766314815557,-0.006422767956466819,0.008296299647302167,0.059122522078650215,0.03719042668878323,-0.018779034639332462,0.002518536883023517,0.047866422908317635,0.03985334821036938,0.0,0.0,0.0,0.0,0.0,0.0,0.0,0.0,0.0,0.0,0.0,0.0,0.0,0.0,0.0,0.0,0.0,0.0,0.0,0.0,0.0,0.0,0.0,0.0,0.0,0.0,0.0,0.0,0.0,0.0,0.0,0.0,0.0,0.0,0.0,0.0,0.0,0.0,0.0,0.0,0.0,0.0,0.0,0.0,0.0,0.0,0.0,0.0,0.0,0.0,0.0,0.0,0.0,0.0,0.0,0.0,0.0,0.0,0.0,0.0,0.0,0.0,0.0,0.0,0.0,0.0,0.0,0.0,0.0,0.0,0.0,0.0,0.0,0.0,0.0,0.24672161446614735,0.2604513395902077,0.26201704887615423,0.2683293236899926,0.27936125431231046,0.2950845893770768,0.3082113174262002,0.2969352250070648,0.3144516448969512,0.3316929746247426,0.3316873116040787,0.34585018335565104,0.3644647336774566,0.3753929226879794,0.4052061590395749,0.46353779341981133,0.5600191504854612,0.5954037879174993,0.6059319113025369,0.6810687466373636,0.6901061372569534,0.43700725158044834,0.08623051735714483,-0.20018727712851478,-0.40537704046045,-0.5197090267170418,-0.2528582654406624,-0.03544783353782771,0.13742501076748798,0.2730858312240928,0.3328898703124122,0.3580330012273914,0.37277325171445,0.3916890416396162,0.39548456500231227,0.38421769278552187,0.3603637729780003,0.37236586662336735,0.3549508748023545,0.3372025594816134,0.31916945473026664,0.32751240731919834,0.3308237618857089,0.31463040650523566,0.29832993713475414,0.308576739864996,0.3066984395649083,0.28063511693429777,0.266714407752698,0.2601318193379218,0.2778566152931092,0.26427312570441613,0.25086465080438713,0.27879098717432277,0.2754963189282464,0.2700405222262875,0.2624486426038262,0.28177782853678646,0.27482246568560653,0.2706369813938546,0.2764993390354042,0.2851694222276443,0.27730845994828734,0.2868042527570522,0.29431521724224075,0.3071123346854495,0.31552893379201524,0.3268329887057749,0.32409635163993405,0.329100511500295,0.3466891557107279,0.3526708730493903,0.3301108821344503,0.32255899894461654,0.35178829904682113,0.3452115224977477,0.32459837312783846,0.3238141008529042,0.31623597188198405,0.30427308649676793,0.2927524182276825,0.2671437838109521,0.2661435336498274,0.22441014199900144,0.2024123826825039,0.19045372904436325,0.1764171879380985,0.14818481394858338,0.11057396057492591,0.09743469353531925,0.07729125610605524,0.06705649296188282,0.03283431932074948,0.01573140240462159,0.010884611120540016,0.0061723724327452135,-0.015365849974770586,-0.02230153470795206,0.004698027240022395,-0.006971604764885894,-0.016200536702827957,-0.0399451185378121,-0.015318165039183738,-0.03185432519159061,-0.03391952703822674,-0.023943578747703077,-0.006772520562158189,-0.009025207941115849,-0.02344749095429901,-0.035525998990887535,-0.03316458835701696,0.0005751684682737793,0.0027928534981634624,0.014624586299627174,0.002203385188888779,0.00424582821712813,0.006240484989481697,-0.0039046416894588844,0.002849145068609385,0.041024186521372394,0.04046190467992205,0.039878965721248834,0.029602744940894897,0.028993871382728773,0.023540464076546832,0.0011499515113848168,0.002957641903075499,0.031387566860154176,0.03563574577382919,0.027803856240977053,0.017573943251149162,0.014627912774615743,0.00929194748316079,-0.008107843090995567,-0.018211942732215578,-0.0016600649797679022,0.01010126376111716,0.00014240136295985454,0.012020015906867876,0.01670714190405471,0.011790752480213045,0.016632827082692262,0.009464560918943194,0.0241645178899949,0.0317053994305694,0.017576512724376797,0.0011393684284774263,0.0235304791747343,0.0363665380401071,0.020297573592314634,0.0019430667097141922,0.007922396782795122,0.04549929805794324,0.04693437788307676,0.02433001225329977,0.030919067777963192,0.047350656558469185,0.044595918386496076,0.05411211701534553,0.05412829578960989,0.06400395277943256,0.07406486227032308,0.07705593295662326,0.08265788420853735,0.09087323240221974,0.09686517176721135,0.1006353510240835,0.1021849345675487,0.12812858233012298,0.1397551737475509,0.16851712604195648,0.19263816023047758,0.21695515345918048,0.24630401968333038,0.26374449822505874,0.2789490956009573,0.2701360920333756,0.25907255271391755,0.23849073901057183,0.22289670678592993,0.2001813207343294,0.19210669306692132,0.18414211865930943,0.17143374956801707,0.17090190699634047,0.20188550940742436,0.22081680561137584,0.2276772147054875,0.2297054149888124,0.2462362185173113,0.2627309268195226,0.25739124695710314,0.26648447862338587,0.29240427255512097,0.2867344040661446,0.27364081930681716,0.26519075861249747,0.2855473662574291,0.31290282641873374,0.30367280567933547,0.31588849210906844,0.31080137826988874,0.3561173721395265,0.3525984721156794,0.4018196135826728,0.5109952462172178,0.5881401790255113,0.5993335723238288,0.6630772747291149,0.7236694193315216,0.5923348302620343,0.28110943087802975,-0.06974273242166551,-0.29576447449941684,-0.4913736085178079,-0.3807833224391187,-0.15027591959470335,0.04777483310006333,0.21585452837232819,0.30563997707455104,0.3341321803586489,0.35462242760559676,0.38168906667792823,0.3863584926113063,0.363849736282023,0.0,0.0,0.0,0.0,0.0,0.0,0.0,0.0,0.0,0.0,0.0,0.0,0.0,0.0,0.0,0.0,0.0,0.0,0.0,0.0,0.0,0.0,0.0,0.0,0.0,0.0,0.0,0.0,0.0,0.0,0.0,0.0,0.0,0.0,0.0,0.0,0.0,0.0,0.0,0.0,0.0,0.0,0.0,0.0,0.0,0.0,0.0,0.0,0.0,0.0,0.0,0.0,0.0,0.0,0.0,0.0,0.0,0.0,0.0,0.0,0.0,0.0,0.0,0.0,0.0,0.0,0.0,0.0,0.0,0.0,0.0,0.0,0.0,0.0,0.0,N
0.18916808532695842,0.31737568895671353,0.5422445641358841,0.762157189497775,0.8730738780242748,0.8386958559120189,0.661431254845792,0.38723419274583254,0.1007667512336437,-0.1326665596690051,-0.19695319077357967,0.07967946228933656,0.04882766314815557,-0.006422767956466819,0.008296299647302167,0.059122522078650215,0.03719042668878323,-0.018779034639332462,0.002518536883023517,0.047866422908317635,0.03985334821036938,-0.0045734790538628205,-0.010400143707851426,0.04174025204772742,0.04540396373884495,-0.006655330237341594,0.006546906212107335,0.034214577006170234,0.04974609761525704,0.007184077008122659,-0.003939676575576545,0.035742430754139486,0.06333691658425301,0.02320848307538099,4.987256213998865e-05,0.03500353162199858,0.07243372943921242,0.030090561465820457,0.02169956970151043,0.056949605263523925,0.09472086777073284,0.06727927337942398,0.0544769847859162,0.09745455743262153,0.14299355166177447,0.13061667725703321,0.10146301503534015,0.14506008130217635,0.198509256046384,0.1747166496704362,0.1583686444608592,0.18818111497760215,0.22060769336511923,0.21693997971948242,0.19169646852741445,0.19810584043327917,0.25310400117015425,0.24539478122631392,0.1943312847142239,0.19910738491611968,0.22342653545642344,0.21163555899386247,0.15163034076921938,0.12566443056073542,0.15308480485144552,0.14436236251540052,0.08255086986051445,0.047481548526738596,0.08269339097073101,0.09381624981142123,0.03728810720130481,-0.002222439072770514,0.04543629576392942,0.05444039890155459,0.010260634064203421,-0.03630723765392138,-0.0030145988900362134,0.05206226004763711,0.020038792237250344,-0.026510727409626615,-0.015012124175384958,0.04001093574722321,0.01758021745900755,-0.016984722991989998,-0.015300598458988606,0.05166185632470688,0.02663536918073415,-0.020218874090503398,-0.013900912008255889,0.043168595986185235,0.05905049718010824,-0.014644397267446057,-0.008554672876260529,0.05070666733532642,0.05668543689922341,0.009383190672237267,0.003159922799244027,0.05495303879408627,0.0655661157983725,0.010805543475000965,-0.005291531628108052,0.04146998686557239,0.07124915759843518,0.009043740720131626,-0.009656324577601355,0.03934395196284179,0.056848302091493226,0.033180074696686206,-0.014723666860198072,0.02201324316850542,0.06355092384830618,0.04214665632147889,0.003771762119702676,0.047625349470492455,0.05999451802608267,0.043299941884580376,-0.002457459257093902,0.031598467085102194,0.06562666142333344,0.04398045056339138,-0.011564625107159728,0.01270602318364906,0.06114627284543451,0.034559758042964864,-0.004146746074407307,0.015191726129668818,0.0635429026599755,0.05380752927635398,-0.016433060974999126,-0.002011083941162537,0.03416972481230041,0.04130309291578213,-0.0023839697057942526,-0.014628119213331622,0.023928399565886847,0.05038328090363083,0.004253553858268393,-0.008001648855096117,0.054751514638773445,0.0715441996558061,0.008507647183822516,-0.023059993794580073,0.025233568021456848,0.06629336663081292,0.02270212757891228,-0.003918127339531543,0.05418214815920956,0.09539106257922372,0.0664855420857832,0.03763421174725582,0.10319990849026163,0.15189165463968074,0.1377432260929496,0.09221018100431137,0.12175047609836223,0.18523488690442205,0.17620831062733136,0.1406403472990599,0.15353316905317882,0.19794897653486548,0.1746877521511795,0.09342393785112865,0.08964273243196502,0.11978923985512885,0.11853302601103204,0.07619050970160064,0.07743623977888432,0.10532729814134173,0.10662856307728882,0.03778220395293568,-0.01411960386412579,0.0259178539396953,0.034495369895464596,-0.012588761482575732,-0.020983151155817097,0.0214033352744177,0.04682182946248944,0.016556809189237583,-0.011329304729796192,0.023645280165480342,0.03679616690333372,0.02811974528649845,-0.002387778863125792,0.022692201392714426,0.06706416168724075,0.01217101362039543,-0.011340860383274476,0.07636631824518884,0.23415868402666712,0.3555767200783521,0.48900482215417496,0.7046006979818327,0.9079967091203669,0.9177213346958636,0.6998852339952348,0.4214091952722078,0.20807978206820282,-0.012713812266228459,-0.17567453234945873,-0.174373389701559,-0.09350160662113065,0.016138522065594095,0.0771395854704533,0.07983881601336973,0.019411969273531046,0.028943304066031197,0.062477354429995455,0.08615578183100978,0.020150301204559105,0.0023830952808816764,0.04254516132310819,0.07532439739240947,0.02815012553836068,-0.00218689880971252,0.030295396026366474,0.06028438576473359,0.010370022503563368,-0.005721143221794994,0.03379811898723786,0.05877631475118982,0.013578507271571472,-0.014682722844501988,0.027232775117200864,0.06675491644257685,0.03615238911083974,0.0,0.0,0.0,0.0,0.0,0.0,0.0,0.0,0.0,0.0,0.0,0.0,0.0,0.0,0.0,0.0,0.0,0.0,0.0,0.0,0.0,0.0,0.0,0.0,0.0,0.0,0.0,0.0,0.0,0.0,0.0,0.0,0.0,0.0,0.0,0.0,0.0,0.0,0.0,0.0,0.0,0.0,0.0,0.0,0.0,0.0,0.0,0.0,0.0,0.0,0.0,0.0,0.0,0.0,0.0,0.0,0.0,0.0,0.0,0.0,0.0,0.0,0.0,0.0,0.0,0.0,0.0,0.0,0.0,0.0,0.0,0.0,0.0,0.0,0.0,0.4018196135826728,0.5109952462172178,0.5881401790255113,0.5993335723238288,0.6630772747291149,0.7236694193315216,0.5923348302620343,0.28110943087802975,-0.06974273242166551,-0.29576447449941684,-0.4913736085178079,-0.3807833224391187,-0.15027591959470335,0.04777483310006333,0.21585452837232819,0.30563997707455104,0.3341321803586489,0.35462242760559676,0.38168906667792823,0.3863584926113063,0.363849736282023,0.3698662574888135,0.37784824620945906,0.38784804180501165,0.3684631868235413,0.3390978275734294,0.3360904490472971,0.3231942078907404,0.31254966886903457,0.30177905420483797,0.29576138665825324,0.3042130889513045,0.29087947085575355,0.2872490450786125,0.2933559623577877,0.2995551194715753,0.284102674275478,0.2615451032783451,0.23674964476126947,0.26297131785175226,0.24103832892750743,0.2411393795113968,0.2657172419339427,0.2785022119712299,0.2795150732420771,0.2808724889972244,0.3043675426264306,0.32340282458508474,0.30895994906226615,0.29734418280503017,0.30792306676051284,0.326190293154589,0.32312128802622186,0.31565948060623783,0.3449412288049855,0.34080640851998306,0.3492269835152246,0.3508479439505627,0.3505070781368952,0.35304042014539994,0.3390877072259017,0.3086425468548946,0.30282757635647306,0.3167942556986684,0.28762562442532036,0.2564396785386285,0.24257788605530453,0.23876643407910855,0.23047193353858167,0.20074034710149838,0.18100557364789044,0.13979469321255175,0.13757314908906548,0.0993162375961589,0.07339074304522253,0.07187113673751525,0.05118407116286691,0.02098383688454141,0.0006022862598317166,0.004532257869653998,0.001296953140164402,-0.01638590487780769,-0.026765146475043574,-0.03712149842451621,-0.02811914609572464,-0.0336467457449349,-0.041620648166205344,-0.02543728114117117,-0.016556024776201807,-0.019819843921399554,-0.020714495175742777,-0.016821124396018843,0.016056180295393043,0.0053367516390812764,-0.0054263453326472465,-0.013810797557380062,0.011639676673256825,0.005604493949555501,0.018896825236044506,0.003132181902336555,0.013962521263556838,0.012681062258667417,0.004131133728756439,0.03186727196714084,0.025729634467445278,0.024433668673765688,0.003788878238523324,0.014607731932279712,0.01092450243735533,0.009679204540913436,0.00845616297883515,-0.002418709194809884,0.015769547365158138,0.024313580066212526,0.00870050175405231,-0.0044519710073876,0.009054380414722701,0.005673473589763902,0.0023455415301207867,-0.010603209833748524,-0.008974224298746064,0.012076426214390337,0.013843342621498785,0.006010154028211287,-0.011417397390938238,0.017213852345527705,0.009649249441852597,0.00218732103423437,-0.0027458159877237535,0.014212125329150038,-0.0025793944959373494,0.007372826568214308,0.012622967308624933,0.027694803791510323,0.04533695911088359,0.031683919172180185,0.027873030482523688,0.04116911912909433,0.03770614654778372,0.03442641132940904,0.026496933676688476,0.042956923660631044,0.06203691586705618,0.0764839566687425,0.06452805568231179,0.07214356410529743,0.0654625143512782,0.06626402997372607,0.07939072621336746,0.09516816041920147,0.10150203855799982,0.10807268061309835,0.11972099020044763,0.13402896728680636,0.18245037523432972,0.19482122125929388,0.21711041289871885,0.22996061401141943,0.24788576490449354,0.26846247508179527,0.2650715703323915,0.2449648961333212,0.25410424346131155,0.25134981903914405,0.22217455778294165,0.2076975897174457,0.19097002770829877,0.20101158027652333,0.20635464037809714,0.2142418667686366,0.2391732497163447,0.2351613475651845,0.22880115565075773,0.2587837656449096,0.286376583498627,0.2946208111014348,0.2907507627459028,0.30377436947791137,0.3118895655890059,0.31990676521344286,0.33505427746624694,0.31133081449949923,0.3430617700524757,0.36246753449443125,0.36709205245786924,0.3835109093807754,0.3923282210975445,0.420115820031353,0.4595712149639243,0.515487086240863,0.6192678150662575,0.647470121778605,0.6919790745223928,0.7551566902334388,0.8054891639518397,0.5912885619319828,0.2576534492722199,-0.018867657800155008,-0.18511970718350362,-0.31133803020710504,-0.42177073768472717,-0.3954690976014929,-0.1912863058661213,0.016630567031874998,0.18238370751764166,0.3205615795783954,0.4046210099966785,0.42011449489011676,0.43727341227215444,0.44164613458289237,0.4381344833241404,0.41470189076686087,0.39318196050994725,0.39782567707143507,0.4117513337734214,0.39388069052365493,0.36603926361671824,0.3669867809439149,0.34354187191357277,0.339299508143965,0.3470444005434838,0.3305261103798254,0.32365664212797457,0.31921562234622786,0.2930448783094973,0.0,0.0,0.0,0.0,0.0,0.0,0.0,0.0,0.0,0.0,0.0,0.0,0.0,0.0,0.0,0.0,0.0,0.0,0.0,0.0,0.0,0.0,0.0,0.0,0.0,0.0,0.0,0.0,0.0,0.0,0.0,0.0,0.0,0.0,0.0,0.0,0.0,0.0,0.0,0.0,0.0,0.0,0.0,0.0,0.0,0.0,0.0,0.0,0.0,0.0,0.0,0.0,0.0,0.0,0.0,0.0,0.0,0.0,0.0,0.0,0.0,0.0,0.0,0.0,0.0,0.0,0.0,0.0,0.0,0.0,0.0,0.0,0.0,0.0,0.0,N
0.3555767200783521,0.48900482215417496,0.7046006979818327,0.9079967091203669,0.9177213346958636,0.6998852339952348,0.4214091952722078,0.20807978206820282,-0.012713812266228459,-0.17567453234945873,-0.174373389701559,-0.09350160662113065,0.016138522065594095,0.0771395854704533,0.07983881601336973,0.019411969273531046,0.028943304066031197,0.062477354429995455,0.08615578183100978,0.020150301204559105,0.0023830952808816764,0.04254516132310819,0.07532439739240947,0.02815012553836068,-0.00218689880971252,0.030295396026366474,0.06028438576473359,0.010370022503563368,-0.005721143221794994,0.03379811898723786,0.05877631475118982,0.013578507271571472,-0.014682722844501988,0.027232775117200864,0.06675491644257685,0.03615238911083974,0.03463590289976211,0.06221835525272458,0.09955683500482343,0.08375794018464602,0.053544857037647164,0.09119053273431314,0.13380038100507013,0.12331826848487315,0.09120720666483335,0.1052214068736629,0.15327262826036447,0.16278574315200003,0.12892958151318512,0.15574760866665058,0.21905156057161845,0.21964930716278377,0.19625652554702486,0.2021045211562615,0.2492928928536496,0.26040041512167816,0.21365206783608548,0.2155026135861354,0.26111084298532516,0.26821192741900374,0.20776773014742278,0.18622822137258657,0.20358633759961373,0.22112281333497605,0.15656718543872472,0.11152642173015913,0.1198619831919564,0.13559277703100878,0.07402584028675255,0.03192661417945746,0.05525162679967047,0.05688725303207402,0.01504486107531507,-0.019480832450337146,0.0016853594224848752,0.042239569339362786,0.01506937851855974,-0.0290289405895217,-0.010225737738216462,0.018241401495702733,0.0007164085519523137,-0.0482926979074677,-0.017499725658750274,0.04470211304086055,0.034273816550344574,-0.005237120137512534,0.010847351887128402,0.04623305763070729,0.0380117691483458,-0.021077520812408917,-0.0197427425616394,0.0299180000966404,0.031127573918091345,-0.013693672359180191,0.009169358080489793,0.053749070664287225,0.061980552829626355,0.00967098526891543,-0.003980585369792908,0.03796338863435506,0.0459848382995884,-0.006528680029304685,0.0038163346412398006,0.04798837452782511,0.07276136847941868,0.03700627754609614,0.02056642040090322,0.05489584211357281,0.06983139892069334,0.04359876115156758,0.017329065122005993,0.04908941015418704,0.07355463306655485,0.027818779659099003,-0.0082766607541778,0.01849566333227016,0.042810622705544095,0.0017624501030247017,-0.019968115646649805,0.01149111247238695,0.06468894887488921,0.033171063233565064,-0.0032192072217106854,0.028102945597831584,0.06181373317566156,0.03500868090911712,-0.013599908872087485,0.022444815119052417,0.06330300515897327,0.03639306458582467,-0.021991470490438488,0.004284750218491864,0.03538335747432444,0.037435594758345535,-0.01858856250775339,0.014900847207271388,0.06048628948865095,0.06736415413193896,0.008925072787203968,-0.0011123028576736213,0.04451463940158763,0.04419316815120952,-0.002072584594740768,-0.019275620501553133,0.021621621517690422,0.035944175589832025,-0.0029161259800839757,0.006663454107709791,0.06226938975531019,0.09132394311825234,0.04544360929108503,0.04802569117897491,0.12085017846799943,0.15746573600017894,0.1433596926532989,0.12450495069137091,0.15897096772292438,0.18385385740192273,0.17254075495643448,0.14196805605997356,0.15262147339701163,0.20208019466823754,0.16453046860856432,0.11497225112542035,0.11630740333090951,0.144336852046415,0.12163294512718592,0.06512603145946476,0.086104574480022,0.1264949019937334,0.09677000371085105,0.04773059372569937,0.03743526556837296,0.058617104543898915,0.0435226480660702,-0.017534953250533027,0.008505044882607681,0.05389033500108093,0.05812693040103958,0.006690209070290262,0.020544706363377394,0.04887365975346641,0.05295747613317216,-0.0035042275445931748,-0.016483742255715295,0.03336606892466784,0.029904460875543062,-0.029295120210424068,-0.020847747375867486,0.08911447551493762,0.21590815813250092,0.35469146071863045,0.5272354626889022,0.7674067421445698,0.9397074310078362,0.9255720051673668,0.7032084191185222,0.43227908164135553,0.20227870704453338,-0.035209054188672505,-0.1761759339669618,-0.14080486362484868,-0.06701293635678297,-0.05157314360903368,0.0023042436887842238,0.08253840476886705,0.10930378334149783,0.05842186228264959,0.014589027236209369,0.04072628187938665,0.08120128994303841,0.0561869672406498,0.006828545009068521,0.017821153265038355,0.067403893024343,0.056393234481919824,0.011416941100245784,0.017169400661935435,0.06882513000683643,0.057522019698154396,-0.007049116825339013,0.00819442212343796,0.04277965360996555,0.06042809801357588,0.020022152958140284,0.0,0.0,0.0,0.0,0.0,0.0,0.0,0.0,0.0,0.0,0.0,0.0,0.0,0.0,0.0,0.0,0.0,0.0,0.0,0.0,0.0,0.0,0.0,0.0,0.0,0.0,0.0,0.0,0.0,0.0,0.0,0.0,0.0,0.0,0.0,0.0,0.0,0.0,0.0,0.0,0.0,0.0,0.0,0.0,0.0,0.0,0.0,0.0,0.0,0.0,0.0,0.0,0.0,0.0,0.0,0.0,0.0,0.0,0.0,0.0,0.0,0.0,0.0,0.0,0.0,0.0,0.0,0.0,0.0,0.0,0.0,0.0,0.0,0.0,0.0,0.515487086240863,0.6192678150662575,0.647470121778605,0.6919790745223928,0.7551566902334388,0.8054891639518397,0.5912885619319828,0.2576534492722199,-0.018867657800155008,-0.18511970718350362,-0.31133803020710504,-0.42177073768472717,-0.3954690976014929,-0.1912863058661213,0.016630567031874998,0.18238370751764166,0.3205615795783954,0.4046210099966785,0.42011449489011676,0.43727341227215444,0.44164613458289237,0.4381344833241404,0.41470189076686087,0.39318196050994725,0.39782567707143507,0.4117513337734214,0.39388069052365493,0.36603926361671824,0.3669867809439149,0.34354187191357277,0.339299508143965,0.3470444005434838,0.3305261103798254,0.32365664212797457,0.31921562234622786,0.2930448783094973,0.29114881964387457,0.31356075660773053,0.29982618300043196,0.27900883867562354,0.2777515099274385,0.291242680434066,0.2735387198300086,0.27305326425162085,0.2946484024269254,0.2899568603885064,0.2904518870706118,0.2840551019084553,0.304656306221144,0.3111407937657914,0.3059425147327128,0.3035911357512355,0.3065175215951322,0.3461844722256516,0.3475972601581997,0.3494737851298449,0.3421411203194298,0.34253859025143035,0.36518435431612445,0.37136686178172135,0.35382564356641,0.36336528004038043,0.3419131331587734,0.3305923796227762,0.3051992169958112,0.30443400502290535,0.2895730357379206,0.25576344100504145,0.24653999339519841,0.23285255380422956,0.20500538585677583,0.17991558762926807,0.1357879613136676,0.10405440695311524,0.08711269250779008,0.06074606695127791,0.029770796836856916,0.018358480416240577,0.01922765951540708,0.000902239881970204,-0.02938269801721379,0.0009331913456108178,-0.0025293107186296145,-0.005918342849364397,-0.03102925525921816,-0.02223429420316494,-0.023100389729375437,-0.02396436219895376,-0.024838655150364874,-0.016055617793279964,-0.0073008750939007995,0.0014192909796458312,-0.023773069957980147,-0.02239719267332031,0.0007046769366311971,-0.005277213435144561,-0.008891169046778667,-0.019815719107262156,-0.02595345830716041,0.0017310821564500943,-0.004502340478817932,0.0013203805132611108,0.024043054295122122,0.008023122712391221,0.006493356682254266,0.00010285414839612713,0.015470314731046972,0.016308622392663848,0.0171391267446513,0.005869097140743242,0.01637535138236858,0.017209408353371796,0.02047288477557295,0.016492221466384138,0.005271574593178513,-0.0035071644233930404,-0.005001039377745109,-0.006464033026653292,-0.005471835313767317,0.0052393867575930946,0.006319987293904287,-0.011901888080906173,0.006227144229251502,0.007486149213003643,0.013657248009739099,-0.006705473101016788,-0.01004490883949504,-0.001192405477907064,0.015021644977875441,0.0023140562287499414,0.01876028958264268,0.05227161634790756,0.03753121660233313,0.018097458352457352,0.006075614376983948,0.011151412538728667,0.021235460465069144,0.021818855597724063,0.03468440563005351,0.03322572058921463,0.03438641679506888,0.0260764912957198,0.044594857779111895,0.04639830340705706,0.05810757079636941,0.03375953771445866,0.04594405839209663,0.05353646011834293,0.09283438217704514,0.09125974688291907,0.08027055280840834,0.09132434222722206,0.1026502586311879,0.12876880531936608,0.13823033819619496,0.1673292933227811,0.18703414603644164,0.19492653374258553,0.20552333967606537,0.2357599268676613,0.2686982687311074,0.2873991598805035,0.2797609602957982,0.2723918638186807,0.2507679401999024,0.2487529858028204,0.23246481915039613,0.22850637571556795,0.2271876122182347,0.21397843398922411,0.2396728799934015,0.25344683330241985,0.2673807937670344,0.27903726743225643,0.27629960572474344,0.3026972167425292,0.3146577676561539,0.3242548640077875,0.30726872162181834,0.31690047676339406,0.3386050053533595,0.35541614438157926,0.3648827643844686,0.3839075942464907,0.38342190429495787,0.4069386781770988,0.41328807742975143,0.41694568075407684,0.43722390926804117,0.44504401078928174,0.4814892254451806,0.5610265694285069,0.6497315629139777,0.6967407399432889,0.7382877453297861,0.822700012326097,0.9015231056022724,0.725483758754813,0.4033834531969358,0.11176476692375925,-0.05267373513054051,-0.17711258342893715,-0.2761436715716793,-0.3836977028923597,-0.4030286079315741,-0.28090404566287586,-0.11164010748643592,0.05644343522524188,0.23310432319617505,0.3700331086468946,0.452791540276663,0.45968115333341136,0.485135031679989,0.5050306937722627,0.5000821412481331,0.492131575878168,0.4788241547362668,0.4771582096672185,0.4629989531089025,0.44850102813709347,0.4385583995470113,0.4259655174857542,0.40835354816561464,0.41480443554304913,0.38487826794871177,0.0,0.0,0.0,0.0,0.0,0.0,0.0,0.0,0.0,0.0,0.0,0.0,0.0,0.0,0.0,0.0,0.0,0.0,0.0,0.0,0.0,0.0,0.0,0.0,0.0,0.0,0.0,0.0,0.0,0.0,0.0,0.0,0.0,0.0,0.0,0.0,0.0,0.0,0.0,0.0,0.0,0.0,0.0,0.0,0.0,0.0,0.0,0.0,0.0,0.0,0.0,0.0,0.0,0.0,0.0,0.0,0.0,0.0,0.0,0.0,0.0,0.0,0.0,0.0,0.0,0.0,0.0,0.0,0.0,0.0,0.0,0.0,0.0,0.0,0.0,N
0.35469146071863045,0.5272354626889022,0.7674067421445698,0.9397074310078362,0.9255720051673668,0.7032084191185222,0.43227908164135553,0.20227870704453338,-0.035209054188672505,-0.1761759339669618,-0.14080486362484868,-0.06701293635678297,-0.05157314360903368,0.0023042436887842238,0.08253840476886705,0.10930378334149783,0.05842186228264959,0.014589027236209369,0.04072628187938665,0.08120128994303841,0.0561869672406498,0.006828545009068521,0.017821153265038355,0.067403893024343,0.056393234481919824,0.011416941100245784,0.017169400661935435,0.06882513000683643,0.057522019698154396,-0.007049116825339013,0.00819442212343796,0.04277965360996555,0.06042809801357588,0.020022152958140284,0.00867499864264133,0.05301335444039046,0.08046626477725971,0.037818144441118764,0.014600817175692013,0.051956829062056696,0.07973374946177662,0.04471506895244408,0.02675387301569745,0.07425011598607908,0.1218892602847426,0.09951748822506919,0.08214763838991324,0.1326947796317068,0.17374521320610753,0.16175693889522233,0.14270690161315322,0.184346327346674,0.2261946438324491,0.20051199378971768,0.18472465468027444,0.21996608497700143,0.26268791452863866,0.2451461290675387,0.22056812231629372,0.2300827901238694,0.2615899280695024,0.23524345731778348,0.1921687125134758,0.1831676697984407,0.20581334704185963,0.19961093998825508,0.1379369773157616,0.10788134779183753,0.13362743535555208,0.10870754539503796,0.05972330873404466,0.039889811373153304,0.06854947869605388,0.06584690506493318,0.012412702809490703,-0.007086304545460876,0.02427192046068219,0.03147082020079798,-0.00243937802552776,-0.02666388027211533,0.014431248005319737,0.03857357198970175,-0.007475962149129939,-0.04146715310780616,-0.0005047247953233953,0.02830436368589984,0.0038228353256293595,-0.04492254997889628,-0.0018046920151503659,0.026717969640787154,0.0043513452878690025,-0.03987351879270165,-0.004341965218560734,0.05288045908958882,0.03501734884019989,-0.016799063230583854,-0.00578926761564944,0.05353293738769569,0.04503721746152518,0.0025991451961929575,-0.008453024432283258,0.040917134127444625,0.04183794703405947,0.01608807500477089,0.0023821505672269516,0.03459581695150824,0.059504346047477584,0.014205019051527941,0.00273717521146315,0.03478136003473793,0.07646792562819858,0.03344068947698493,-0.014456194414461603,0.03681580504081544,0.06386787598019444,0.04250865403447474,0.004193907352789365,0.04812391554169597,0.07268421966472684,0.048843753023723645,-0.0016203715000489077,0.03742743747116228,0.059533117819548,0.050181688576769176,0.011794052109071201,0.012116129446355227,0.05840742193335564,0.04421301219013598,0.0034060476582322623,-0.008365455428514112,0.04761032113332631,0.033425816977922504,-0.0025287753102510614,-0.004605066990016061,0.03929539119872799,0.044493308853595724,-0.0035266224754630458,-0.020082302132596538,0.02870016256666094,0.03878766969549174,0.0053446053987113475,-0.003881205259325778,0.03530785634797535,0.06726778141803316,0.014579294751618021,-0.004201406473110733,0.03270362488168249,0.05755292122938715,0.03163830460842309,-0.003906694563719677,0.02108474908208059,0.0775822004784832,0.05913257741932203,0.01170803878899198,0.06596135280986946,0.13479433059047452,0.1407862711469482,0.10571343109622447,0.12151554155317275,0.16883690135007928,0.1944488397411752,0.15963856836776197,0.15392341134254378,0.1893973528703028,0.19589215696649215,0.13227209380295543,0.10014826537792978,0.12612802504269946,0.12794277612039046,0.08622910643750586,0.06388441467894043,0.08509439752651683,0.10871916266788534,0.05974603031836116,0.010748497241817099,0.031880307043378214,0.04812788386990824,0.008672036752698349,-0.04294794320112624,-0.014803719672699082,0.025353131424097907,0.0073529861001557185,-0.03493736596965326,-0.007164811160480964,0.032601454200724134,0.031131823301266424,-0.009156021821107065,-0.008422013072685931,0.028493882461444603,0.038685591501131295,-0.028655829560210243,-0.013846982469248433,0.09763098761538166,0.21384225614014485,0.3323703242546289,0.5016061668976621,0.7288083718703153,0.888163025370031,0.885305477124144,0.7008697233313455,0.4316191462355607,0.1646358060177137,-0.09042293695208298,-0.21744455062451193,0.030342626372952188,0.06018022592224592,0.02934060105701105,-0.011360190948474872,0.015507759191619017,0.06398326412285522,0.03487706152288281,-0.011316438559617559,0.00041372611030454165,0.05072087011400893,0.03557740096335615,-0.00871617057556141,0.0049490313768649164,0.03787108044944371,0.03683129895424916,-0.007839000437314376,-0.011449966495083688,0.03326645500106607,0.04164013773141949,-0.010512850241107886,-0.02882338205307306,0.0,0.0,0.0,0.0,0.0,0.0,0.0,0.0,0.0,0.0,0.0,0.0,0.0,0.0,0.0,0.0,0.0,0.0,0.0,0.0,0.0,0.0,0.0,0.0,0.0,0.0,0.0,0.0,0.0,0.0,0.0,0.0,0.0,0.0,0.0,0.0,0.0,0.0,0.0,0.0,0.0,0.0,0.0,0.0,0.0,0.0,0.0,0.0,0.0,0.0,0.0,0.0,0.0,0.0,0.0,0.0,0.0,0.0,0.0,0.0,0.0,0.0,0.0,0.0,0.0,0.0,0.0,0.0,0.0,0.0,0.0,0.0,0.0,0.0,0.0,0.5610265694285069,0.6497315629139777,0.6967407399432889,0.7382877453297861,0.822700012326097,0.9015231056022724,0.725483758754813,0.4033834531969358,0.11176476692375925,-0.05267373513054051,-0.17711258342893715,-0.2761436715716793,-0.3836977028923597,-0.4030286079315741,-0.28090404566287586,-0.11164010748643592,0.05644343522524188,0.23310432319617505,0.3700331086468946,0.452791540276663,0.45968115333341136,0.485135031679989,0.5050306937722627,0.5000821412481331,0.492131575878168,0.4788241547362668,0.4771582096672185,0.4629989531089025,0.44850102813709347,0.4385583995470113,0.4259655174857542,0.40835354816561464,0.41480443554304913,0.38487826794871177,0.38394468997808395,0.37091542697707214,0.35550882756865415,0.3426024769414803,0.32981381945427435,0.3316947674535488,0.31440649564479406,0.29975597211737687,0.2974513207852044,0.31236025792513067,0.2961210151282883,0.29956789375696646,0.2961111728532987,0.3051292677632783,0.3145462057052832,0.3171233971085448,0.3177179518142473,0.34537993833255165,0.3565742037259726,0.3416362301576804,0.35380553206332943,0.3737362828395356,0.3724030691408694,0.38368442408398984,0.3785512036267077,0.4005559781626004,0.4037296114711664,0.3832316898381493,0.38260886947316025,0.37766116642666625,0.3756395912765384,0.3595987220088529,0.33920525712628863,0.3289630059951068,0.3095017199549355,0.2759662321019501,0.2525332811668817,0.23676422733474167,0.1923468061237885,0.1652290198034159,0.14571045705127394,0.1434455158286834,0.09308477825819667,0.08412319266494678,0.053629612948611786,0.030611740679564056,0.03923810042291892,0.018996158684219652,0.003731908493760986,-0.01142002295649556,-0.019227754991150137,-0.03181395746139191,-0.02742711158133817,-0.025443401525283647,-0.004105680605786671,-0.019076926727340626,-0.03166100503952765,-0.03219342152704583,-0.008587219950518242,-0.016497109696217833,-0.02205717050646113,-0.030111185755683455,-0.006789572529582098,-0.017417518923653723,-0.0063468465941922845,0.004649735751726082,0.010736303357625397,0.011915817075543463,-0.01600336020996118,-0.014951474621142942,0.002978569609672559,0.006339653211478691,0.0023959128779607523,0.015347634604711743,-0.0007690860215309553,0.026635036849013183,0.0056264609847518614,0.0063749576948571385,0.007111001869538756,-0.009096054618589533,0.0013094652629828674,-0.0003773479003171101,-0.004472321498463894,0.01806438835538862,0.011592145417760168,0.005151128124097419,0.010845275948946192,0.031100684896826686,0.01995430817395441,-0.0032317869447809054,0.0050989113299320776,0.023177952235065753,0.014720132941458384,0.011184858730882,0.010159099284096447,0.023746494929145413,0.03259772762682495,0.00768554289107148,0.0022439738194557106,0.013859563224120217,0.011085389554183494,-0.0012337216101083676,0.0011026353133129381,0.02535880210989494,0.013473845479809909,0.028359426759031962,0.031310053913265405,0.039267544968794435,0.04739847154426745,0.05086920892060802,0.05210425867217072,0.053527868027265516,0.06482238697869772,0.06179753587958507,0.06381289068584287,0.05877481079395576,0.09023678839366865,0.07352093708507135,0.07153563942868273,0.06734691423666009,0.09966787450067727,0.1128525737625832,0.10690201908256795,0.1181084696868965,0.14889128829139092,0.17263579392636982,0.18208219659448038,0.20626165954834375,0.22339589262907694,0.24315848194125034,0.2728024421813749,0.27602939253881936,0.29396212990582166,0.2830411660267881,0.26261135797897805,0.24233832991943566,0.2246280296626263,0.1997879211883844,0.18473834405095474,0.19155973000778365,0.21539540612442334,0.2271931973818135,0.23903057706999964,0.21217533951251877,0.24822244073860486,0.2624677848988833,0.27908148431860696,0.2714237959835828,0.29027612318727614,0.3041570615318998,0.31787557166799435,0.3096250947462338,0.3180838432543399,0.3166032119824622,0.3390193660164395,0.33932489128237475,0.3513526747532165,0.367803181491321,0.3910529375100557,0.4113793576638991,0.49164153440052943,0.5809821451268128,0.6430581356135207,0.6705569998638533,0.7263271950196245,0.6627212901497745,0.3804773112591933,-0.004338585108613649,-0.28372287651004025,-0.4964559800527121,-0.4756377327403049,-0.20432698283135686,-0.011519376289059155,0.17301883270514712,0.29613030845215976,0.3675626653022152,0.3728674926680451,0.399211628150097,0.40310950586715744,0.4281739233093372,0.39946239541800116,0.39445592526646156,0.3938553414722033,0.36626222823010357,0.34802092445902694,0.33918212133775305,0.3543114965120168,0.3474866710020398,0.3235920372710823,0.331060430063782,0.31186707130635494,0.0,0.0,0.0,0.0,0.0,0.0,0.0,0.0,0.0,0.0,0.0,0.0,0.0,0.0,0.0,0.0,0.0,0.0,0.0,0.0,0.0,0.0,0.0,0.0,0.0,0.0,0.0,0.0,0.0,0.0,0.0,0.0,0.0,0.0,0.0,0.0,0.0,0.0,0.0,0.0,0.0,0.0,0.0,0.0,0.0,0.0,0.0,0.0,0.0,0.0,0.0,0.0,0.0,0.0,0.0,0.0,0.0,0.0,0.0,0.0,0.0,0.0,0.0,0.0,0.0,0.0,0.0,0.0,0.0,0.0,0.0,0.0,0.0,0.0,0.0,N
0.3323703242546289,0.5016061668976621,0.7288083718703153,0.888163025370031,0.885305477124144,0.7008697233313455,0.4316191462355607,0.1646358060177137,-0.09042293695208298,-0.21744455062451193,0.030342626372952188,0.06018022592224592,0.02934060105701105,-0.011360190948474872,0.015507759191619017,0.06398326412285522,0.03487706152288281,-0.011316438559617559,0.00041372611030454165,0.05072087011400893,0.03557740096335615,-0.00871617057556141,0.0049490313768649164,0.03787108044944371,0.03683129895424916,-0.007839000437314376,-0.011449966495083688,0.03326645500106607,0.04164013773141949,-0.010512850241107886,-0.02882338205307306,0.03752848816500764,0.05790636235919425,0.010549104119937106,-0.005331991064312906,0.058665776548853195,0.08400325766785435,0.06585536781625047,0.030849510073064138,0.09513257209854015,0.11838911787417059,0.10547050143436192,0.07574421143950866,0.133258114198367,0.17398661643935834,0.15438981931523926,0.1446413121897078,0.190719368191403,0.22246772466978276,0.21811825394938913,0.20187135015946941,0.23179867883834843,0.2837094455953278,0.26566697304561965,0.22848097654438695,0.24715438739788992,0.2902329996492709,0.27303337414061774,0.22700443312164006,0.21020773238973547,0.24441187629119204,0.21589497013224626,0.1585206173041242,0.12792643158056746,0.14587687213188372,0.1397770357809691,0.07574256082389892,0.03360274481559333,0.049636326883435784,0.06334370099723557,0.01422501294516776,-0.015472096915919099,0.03714430521698888,0.04625017756560526,-0.014781075797436443,-0.03466737962040438,0.0010965684067841199,0.034435731137388466,-0.0048222062011554455,-0.041682464844292555,0.0012696465107176107,0.03209096899903838,-3.093730626339286e-05,-0.027355405785749718,-0.008755765595497301,0.03883034658565708,0.030721401875913323,-0.025825054471604224,-0.00015945495237202213,0.044813867030608565,0.03651277550817168,-0.003286366842929975,-0.00441829133789642,0.04763513105520874,0.044000273247590434,0.008873263547591773,0.0027418266911333655,0.05464073547606666,0.06295420984691236,0.001069283830997081,-0.007621148742434225,0.0441419880368241,0.06442086251566229,0.0193443286173402,0.0032720028764064092,0.04281868110507123,0.06298205675448813,0.02263197118275244,-0.005647691018300647,0.048307387154711806,0.044169523947946,0.013392060500955807,-0.005313519608535933,0.03886147237987237,0.04913950986657396,0.027940503517046265,-0.010218609557801253,0.01450423762252172,0.06097936137660131,0.0300100992155255,-0.013077615101879773,0.0067198198471001705,0.06279016185757227,0.029323503553098148,-0.006578386677100195,0.017991568652718785,0.05706562268819994,0.04532030318837494,-0.00514560570075828,-0.007230459148234013,0.051164789222971456,0.046650424682111086,0.008262105676055159,0.006165982685686927,0.037944532023473525,0.03827438402846631,-0.01703729539680739,-0.014274629291754217,0.0320487931316808,0.039676014750640455,-0.0010664489438107748,-0.01033246698262107,0.036076741058197345,0.05348548790016451,0.04189881088196363,0.020677115343608266,0.07692532113175247,0.13080588913433241,0.13635325761302594,0.11776538922935655,0.1476286534504845,0.18481447277260019,0.18093516826283793,0.15534686091666308,0.17095494676843204,0.21082204897452053,0.1878457574872792,0.11895914857845237,0.10577526429186572,0.13135328487438575,0.12794331869603626,0.06892554264655287,0.06074948747187137,0.1155056165749607,0.11221409603855868,0.043608872561343895,0.013718235486942067,0.04430880554234357,0.0482716855765301,-0.008274245676427108,-0.026140357268090903,0.021279134945427478,0.05171704915512639,0.007100641442291554,-0.023056370552665822,0.014467878878514124,0.04950526994088526,0.02882379150028078,-0.011289001245754774,0.01868230021048303,0.0534090934016573,0.02756268244892987,-0.03224662728534691,-0.017147217679960514,0.07527959795765878,0.17970941130506535,0.27920652621374875,0.4487736162747992,0.6714726907600185,0.8432631556436622,0.8842956038224941,0.767944409306618,0.5474215207717936,0.2638377750287539,-0.015084729504814126,-0.15629994402799974,-0.16708874354917175,0.04931938584762257,0.06952812936077964,0.01935708088311474,-0.0044079664763585005,0.03695177731965905,0.06844116292125822,0.010225947362450801,-0.028811009098058876,0.019082377382560183,0.04262129997688129,0.007943398160670655,-0.019616270124359417,0.015599495632127548,0.045857583627721264,0.01794153063411076,-0.027006633149679504,0.002963575768242868,0.05463794079414468,0.033671505230277565,-0.0066942406664397235,0.023073841432329142,0.0600838968062203,0.0341855920798739,-0.006218439540337827,0.02356608065294063,0.060647301974450056,0.05423052805150914,0.01884602884702525,0.0,0.0,0.0,0.0,0.0,0.0,0.0,0.0,0.0,0.0,0.0,0.0,0.0,0.0,0.0,0.0,0.0,0.0,0.0,0.0,0.0,0.0,0.0,0.0,0.0,0.0,0.0,0.0,0.0,0.0,0.0,0.0,0.0,0.0,0.0,0.0,0.0,0.0,0.0,0.0,0.0,0.0,0.0,0.0,0.0,0.0,0.0,0.0,0.0,0.0,0.0,0.0,0.0,0.0,0.0,0.0,0.0,0.0,0.0,0.0,0.0,0.0,0.0,0.0,0.0,0.0,0.0,0.0,0.0,0.0,0.0,0.0,0.0,0.0,0.0,0.49164153440052943,0.5809821451268128,0.6430581356135207,0.6705569998638533,0.7263271950196245,0.6627212901497745,0.3804773112591933,-0.004338585108613649,-0.28372287651004025,-0.4964559800527121,-0.4756377327403049,-0.20432698283135686,-0.011519376289059155,0.17301883270514712,0.29613030845215976,0.3675626653022152,0.3728674926680451,0.399211628150097,0.40310950586715744,0.4281739233093372,0.39946239541800116,0.39445592526646156,0.3938553414722033,0.36626222823010357,0.34802092445902694,0.33918212133775305,0.3543114965120168,0.3474866710020398,0.3235920372710823,0.331060430063782,0.31186707130635494,0.3216998857668908,0.3073697895912916,0.2979475409983026,0.28379109050018136,0.29638762415761627,0.2752836407891859,0.26889960656217904,0.2724266137965632,0.29073222802865795,0.28997138180417403,0.2750088248652218,0.282160764668754,0.30661130834146266,0.3120902446344654,0.30829546338566666,0.3097622028389403,0.3237657964750547,0.33580493910639747,0.33137670671637426,0.3419461304070235,0.36510422239650303,0.3669873776005671,0.3717970717001681,0.38437731001060055,0.3950535122902228,0.40140753969663184,0.3937609148340751,0.393886060840852,0.3896810700503408,0.3714615197942119,0.3755106731421139,0.3534290308552282,0.3487544844280276,0.3300200709233469,0.30204890006054286,0.2720818858872135,0.2715529764924195,0.23027767355474935,0.18694557027474049,0.1512116553214076,0.12789107377872158,0.11212039695799157,0.07484101242919558,0.040221744589444115,0.03243104363078577,0.029667524493217332,0.005290731104325213,0.010082600769153254,0.00288577605243243,-0.0018096990363964875,0.0008083873688420843,-0.027997760659000306,-0.044704492516736506,-0.020302224385494255,-0.024974757092058424,-0.04180360332243235,-0.04177063101771438,-0.012789917776861035,-0.029871932418347135,-0.03737538957426131,-0.013528528043460015,-0.0067202143920813,-0.014529486975577885,-0.020018019157457736,-0.018343376142947402,-0.011919584711242054,0.006518888693581659,-0.0017309241553338916,0.009308880921578853,0.01787164854098729,0.031224129918309206,0.020341170481775916,0.014264365825279127,0.015421211122299447,0.026239130224488354,0.027370380020075556,0.0164032672018134,0.012701051467920362,0.011432366214316475,0.019863053474645682,0.018644899406162124,0.017463043994007586,0.03809980614180807,0.020075966865697195,0.02146538368399406,-0.003694726694455262,0.026863829827878067,0.023628333917225255,0.013219744493288268,0.007742175762522008,0.019299675832658954,0.006768256671435308,0.01128528432048061,0.01592118469383107,0.0231019627078713,0.01589790824429248,0.013671012103916006,0.030944276740829547,0.03385154768213528,0.04417396759126543,0.030464512444796293,-0.007271155078782478,0.005975562662940202,0.033919050356680476,0.03301529952555244,0.03956212824109459,0.06082373635519282,0.06293340062295562,0.04347700125256085,0.03875137464272327,0.04150296009241889,0.061414184143924244,0.06945599496717543,0.0704713956615353,0.08140031418937305,0.10466559958450206,0.10639787745022102,0.12289142849112186,0.13479254956469558,0.1517803762144456,0.18595282444972377,0.20585687166326846,0.2211692907698319,0.26576036968577055,0.27188220447994454,0.2854999205633892,0.289671468792615,0.2940673712390882,0.27932324847377626,0.2744623393027149,0.2576979429151767,0.2435338026176812,0.24405291879843702,0.21327016789032974,0.20681629206269345,0.23435133299069397,0.2450479375531304,0.2485639415870433,0.24487813797540026,0.27509880206759707,0.3101688063930484,0.31377128470136995,0.31007418061305136,0.32566332332075504,0.34841172078870014,0.3419962083785268,0.34267551225115833,0.35041483215753255,0.3821138354711997,0.38692571349085403,0.3841659253753036,0.3931479956547889,0.4138278926011533,0.44132070988906935,0.4489643821963802,0.5068728147412291,0.6077351262047691,0.6595569959032102,0.6816359681925587,0.7416553782157668,0.7742251593631514,0.5833009976039406,0.25349142149873044,-0.06043377846757957,-0.26661189441070066,-0.45947246823930005,-0.5156688151584139,-0.2779382384882477,-0.03414866787327666,0.1504481786055356,0.2904458231343497,0.3883397635154518,0.40791277446447255,0.44601568257101826,0.4422327370020668,0.4450214061330143,0.43025331431768427,0.42944531266058344,0.4450786478564918,0.43124333080170146,0.39767459885697914,0.4000751673097657,0.3949481315020618,0.38476422054335957,0.3768310976596866,0.3711961389701786,0.37274374529567544,0.37425918933334046,0.33707297248985946,0.32171135644841764,0.3209541935266427,0.3179019097709951,0.31742841631433383,0.3147282170655839,0.0,0.0,0.0,0.0,0.0,0.0,0.0,0.0,0.0,0.0,0.0,0.0,0.0,0.0,0.0,0.0,0.0,0.0,0.0,0.0,0.0,0.0,0.0,0.0,0.0,0.0,0.0,0.0,0.0,0.0,0.0,0.0,0.0,0.0,0.0,0.0,0.0,0.0,0.0,0.0,0.0,0.0,0.0,0.0,0.0,0.0,0.0,0.0,0.0,0.0,0.0,0.0,0.0,0.0,0.0,0.0,0.0,0.0,0.0,0.0,0.0,0.0,0.0,0.0,0.0,0.0,0.0,0.0,0.0,0.0,0.0,0.0,0.0,0.0,0.0,N
0.27920652621374875,0.4487736162747992,0.6714726907600185,0.8432631556436622,0.8842956038224941,0.767944409306618,0.5474215207717936,0.2638377750287539,-0.015084729504814126,-0.15629994402799974,-0.16708874354917175,0.04931938584762257,0.06952812936077964,0.01935708088311474,-0.0044079664763585005,0.03695177731965905,0.06844116292125822,0.010225947362450801,-0.028811009098058876,0.019082377382560183,0.04262129997688129,0.007943398160670655,-0.019616270124359417,0.015599495632127548,0.045857583627721264,0.01794153063411076,-0.027006633149679504,0.002963575768242868,0.05463794079414468,0.033671505230277565,-0.0066942406664397235,0.023073841432329142,0.0600838968062203,0.0341855920798739,-0.006218439540337827,0.02356608065294063,0.060647301974450056,0.05423052805150914,0.01884602884702525,0.04160743602915292,0.09591392889187864,0.09709757240569875,0.0645264924011038,0.08289359879282096,0.1473716650050542,0.17087159942174113,0.12678993428340032,0.1457868853313095,0.20367695092691515,0.22304590306811936,0.19422321936876452,0.20431543935702762,0.2581666808727161,0.285616952891957,0.24553842670062798,0.24196911121561696,0.2821676105178284,0.31048550369910805,0.24949786915588293,0.2250124048591462,0.241862839860733,0.2589121440071253,0.1842135348300847,0.1363114705885262,0.14181022018703326,0.17408537354371892,0.12666981538191907,0.06487682442843545,0.0612774093467815,0.09892244055828736,0.05198703281040521,-0.002120021759530865,-0.0029263719495245867,0.04713471970098511,0.036754819371063376,-0.014724203289625978,-0.020215938404820923,0.015428154414395495,0.022033266498990206,-0.017347490531724616,-0.03498021022390061,0.03445120745931497,0.04093474152968006,-0.025213444398502358,-0.021251762383073306,0.026201960793606788,0.03488446540889018,-0.004884006411787327,-0.02778029967883355,0.019421932434971798,0.04962331902673593,0.019274571798636397,-0.025654031805683222,0.018874595570871525,0.05124635198773573,0.032752856274869034,0.006946921602743522,0.0246395606633387,0.07131648184192735,0.040524002039321404,0.007267163718642046,0.02235626243703776,0.06643737898654725,0.05725066723439448,0.006894671576162317,0.01214855515496604,0.06575490621092431,0.04190298524016386,-0.008598102748193575,-0.005906009116797416,0.04514152659059528,0.045348603185839845,0.004394543059989889,-0.005135742995414535,0.04095354526652631,0.04346652012988821,0.009663083969255382,-0.0023885351728673825,0.05328257028762362,0.07022190584411,0.02181670672079802,-0.00241233039501539,0.0556024745286818,0.06279213083618562,0.01915736343221299,-0.00997614716707462,0.04071718376766707,0.0647826242694296,0.02834887164317314,-0.017774795718394975,0.01593202969061427,0.06414636055152334,0.025253313456562308,-0.025742142446315376,0.010359380010238804,0.05130063135238718,0.019663219166584478,-0.019223694176692722,0.007227318662725065,0.0506327898461418,0.04083412554090189,-0.0028077073915385438,0.01165168659753654,0.04792588507344409,0.04553386305710566,0.016577988797904827,0.031227309162219788,0.08464770084000102,0.09942125152676569,0.08281053068039557,0.10498342579601695,0.16836268631540793,0.16649508747638614,0.10906037527595741,0.11461291252252138,0.17589488643559623,0.20096700616926888,0.15837546211810008,0.12554088912845102,0.16536640359779478,0.1592954120744402,0.09764594356150913,0.06267449887172036,0.10518418301632375,0.13322997634689607,0.09599705858023519,0.0660621191416659,0.07970955104227648,0.09096196641028689,0.027227580111603145,0.007051052061402723,0.0183263668927651,0.04168911069772079,-0.002711582778440654,-0.030203887091438106,-0.01660207891153268,0.04050734460292193,0.005630561061082562,-0.014781011604992204,-0.0037957974741103274,0.041002456999445366,0.022832734389705997,-0.02201619416878872,-0.011286037561842273,-0.003044769995394542,0.0075465216416855455,0.027746494142274907,0.14949467156751073,0.34859662667343955,0.5113373708846888,0.6740063472157201,0.8293402622794073,0.9241028185135601,0.7574668515103052,0.4576463786367665,0.1794656286403689,0.007582363607353073,-0.11609436299136218,-0.19400808373896258,0.020612503891264195,-0.009346101671198625,0.02339209052070326,0.05592743171845711,0.018101792927308704,-0.022334332054668553,0.02172509549040397,0.048670790611443006,0.014960266018197773,-0.011654305218108176,0.024481903029437275,0.05805210261692962,0.030997746276737775,-0.003445099803854991,0.015217838859491902,0.05312244132034679,0.03285433082835125,-0.02864241226380605,-0.010387331445452142,0.04166039525011001,0.03315348801413972,-0.026219000834441182,-0.02273164431451237,0.019434572930139653,0.04464791819018706,0.006954379297822343,0.0,0.0,0.0,0.0,0.0,0.0,0.0,0.0,0.0,0.0,0.0,0.0,0.0,0.0,0.0,0.0,0.0,0.0,0.0,0.0,0.0,0.0,0.0,0.0,0.0,0.0,0.0,0.0,0.0,0.0,0.0,0.0,0.0,0.0,0.0,0.0,0.0,0.0,0.0,0.0,0.0,0.0,0.0,0.0,0.0,0.0,0.0,0.0,0.0,0.0,0.0,0.0,0.0,0.0,0.0,0.0,0.0,0.0,0.0,0.0,0.0,0.0,0.0,0.0,0.0,0.0,0.0,0.0,0.0,0.0,0.0,0.0,0.0,0.0,0.0,0.5068728147412291,0.6077351262047691,0.6595569959032102,0.6816359681925587,0.7416553782157668,0.7742251593631514,0.5833009976039406,0.25349142149873044,-0.06043377846757957,-0.26661189441070066,-0.45947246823930005,-0.5156688151584139,-0.2779382384882477,-0.03414866787327666,0.1504481786055356,0.2904458231343497,0.3883397635154518,0.40791277446447255,0.44601568257101826,0.4422327370020668,0.4450214061330143,0.43025331431768427,0.42944531266058344,0.4450786478564918,0.43124333080170146,0.39767459885697914,0.4000751673097657,0.3949481315020618,0.38476422054335957,0.3768310976596866,0.3711961389701786,0.37274374529567544,0.37425918933334046,0.33707297248985946,0.32171135644841764,0.3209541935266427,0.3179019097709951,0.31742841631433383,0.3147282170655839,0.30983313764878145,0.3100317933326657,0.29115834264853657,0.29195120911222966,0.2906609997329613,0.30666758705003805,0.3037019384400546,0.29630203094219115,0.3111015952289171,0.32150488303342967,0.3420453158670863,0.3316072558591151,0.3676266219133814,0.38237040918169624,0.3855263163978409,0.39403849372933974,0.4079129827119613,0.41505658254602434,0.40821296172412636,0.40431825774191477,0.40578984045865113,0.3981068771421342,0.3885215959683271,0.3770258712930184,0.3490929082924394,0.3530998421569674,0.33096606775420345,0.3020317561676177,0.26869924265016765,0.2551444421533967,0.2153777477033434,0.18566972717610816,0.1635786007015128,0.1466616600607434,0.11795865257040515,0.07744477323897651,0.06622535256780959,0.05282170097650281,0.04930497747262426,0.012098625097523418,0.004081835225897517,0.010711197024238258,0.010184915964072548,-0.012040492753269108,-0.019700021850514688,-0.03459442648989086,-0.020455684045238495,-0.032951753706539195,-0.03822883751572928,-0.026624551384105383,-0.027184150340940117,-0.03265854365418086,-0.04063496695468516,-0.031761372311489754,-0.0060374869005409195,-0.009429654710743814,-0.01773946774045696,-0.006767622170841369,0.006556145780241134,0.012561106104823548,0.00641540487140261,0.002642760771714425,0.013347405991874528,0.02643901521823218,0.020149378685721683,0.016260334148933794,0.019617437615392044,0.015710528362179257,0.01180443743655642,0.010325008475950307,0.01853693495279296,0.014671405571319133,0.025348604923013808,0.016702283527427912,0.010513517018801507,0.009207662091187065,-0.006565066986314273,-0.0053459589823905435,0.015290867872478927,0.01906053235637811,0.010808802079187779,0.002639712633915704,0.004237791140962976,0.03012646037936012,0.014987125795505705,0.009634854776116343,0.00681773348596973,0.021058889772935952,0.013653419967100205,0.0208994023905825,0.021027940812093186,0.0237229420750818,0.00963475474013892,0.00780269732506968,0.023071495887943105,0.019155112187205375,0.03235102548171065,0.007017350968094842,0.015743126803467625,0.02950027005714144,0.03377734565437215,0.03341840644783536,0.047784062975055816,0.052684578966793634,0.04812452351945652,0.05104438330673115,0.06386767780810908,0.07450094470958783,0.10714221878771966,0.09404989402767581,0.1029712767049235,0.11455284341599481,0.13363510018700087,0.13360507270808442,0.14591602478019725,0.1705676446071763,0.2123977996699272,0.22059605275341876,0.23629017294027876,0.26189555547533144,0.28530968758095854,0.2774925660015909,0.25779184950514633,0.2600705359682899,0.2552845191649368,0.2289051190878997,0.20511365016493563,0.1911541012980321,0.2208834345354846,0.238637842297021,0.2516582277286989,0.2502481197871905,0.25374324228118433,0.2597029779214037,0.28746053055972653,0.2765058093894652,0.29939727987407244,0.30046094023235337,0.30870219669758203,0.3119942279121951,0.3465977575795708,0.33989650014511635,0.33540624963807064,0.3403492841762284,0.3571072959889433,0.3614462768445893,0.3823584304041776,0.3956061556682179,0.44953357270295474,0.527157553971756,0.5945565432699522,0.6589370738912396,0.688791435489058,0.7590646178897125,0.760819630389016,0.5851156869596918,0.2536587366205086,-0.011033479614711256,-0.23564829517124192,-0.4275163598650244,-0.5116844863516856,-0.2921861518028527,-0.05447765465460258,0.1192466363434939,0.2508340682486969,0.34519521088491123,0.38788374447693014,0.4200990751312059,0.4201328543919661,0.4267609940229686,0.4327876709803701,0.4334343828439534,0.41182319111216514,0.4018825331120589,0.37705242633982666,0.3760961484510934,0.372449822267254,0.3564838711291345,0.3572781269859895,0.34826318751000435,0.3415791348402692,0.3227503110853778,0.3232689846015785,0.3044616315642727,0.3002367446618265,0.26223984370217523,0.0,0.0,0.0,0.0,0.0,0.0,0.0,0.0,0.0,0.0,0.0,0.0,0.0,0.0,0.0,0.0,0.0,0.0,0.0,0.0,0.0,0.0,0.0,0.0,0.0,0.0,0.0,0.0,0.0,0.0,0.0,0.0,0.0,0.0,0.0,0.0,0.0,0.0,0.0,0.0,0.0,0.0,0.0,0.0,0.0,0.0,0.0,0.0,0.0,0.0,0.0,0.0,0.0,0.0,0.0,0.0,0.0,0.0,0.0,0.0,0.0,0.0,0.0,0.0,0.0,0.0,0.0,0.0,0.0,0.0,0.0,0.0,0.0,0.0,0.0,N
0.14949467156751073,0.34859662667343955,0.5113373708846888,0.6740063472157201,0.8293402622794073,0.9241028185135601,0.7574668515103052,0.4576463786367665,0.1794656286403689,0.007582363607353073,-0.11609436299136218,-0.19400808373896258,0.020612503891264195,-0.009346101671198625,0.02339209052070326,0.05592743171845711,0.018101792927308704,-0.022334332054668553,0.02172509549040397,0.048670790611443006,0.014960266018197773,-0.011654305218108176,0.024481903029437275,0.05805210261692962,0.030997746276737775,-0.003445099803854991,0.015217838859491902,0.05312244132034679,0.03285433082835125,-0.02864241226380605,-0.010387331445452142,0.04166039525011001,0.03315348801413972,-0.026219000834441182,-0.02273164431451237,0.019434572930139653,0.04464791819018706,0.006954379297822343,0.017664258704403118,0.07679292037396304,0.09725528051977733,0.06213004981981036,0.06337090196245508,0.11792811269937156,0.15807073592684143,0.1426812346151416,0.12983891295331532,0.18004181615282913,0.21345898337200214,0.17445309784603522,0.17190867665975718,0.2106728242028689,0.24962215117835931,0.24279330606790386,0.2337415031004831,0.27569856025293205,0.3202780407935281,0.29005867635459204,0.24794595403682315,0.27619954607630903,0.2828771661204372,0.25829659739113714,0.1879352998673152,0.20727561661785823,0.21711187146131752,0.19565989355324118,0.1283927897756087,0.10723868356916669,0.1321857881240554,0.08950742229297373,0.03241859957282078,0.03348952135215432,0.0539953232111068,0.04553315556781884,-0.0064277391358375695,-0.01480126012272592,0.039754580018813386,0.019318636961395495,-0.025312986964757166,-0.03366646830822211,0.011184241401452447,0.031809666233953884,-0.02018627251908237,-0.03835472918419222,0.006332517892897887,0.026773521493114034,0.0036110267354879126,-0.014767631127861416,0.010347047385666391,0.05234069511153015,0.012015260292064315,-0.0017544896745949178,0.02312797538953731,0.04553135490984749,0.00980750610026763,-0.013880311195039874,0.013178206258805565,0.04743322975397573,0.03081813812003347,-0.007633567550142235,0.03369509260352437,0.0677043781995189,0.053264014524192604,-0.01688424965764686,0.004846151528895367,0.04103412610298057,0.011839103424416164,-0.019831881030442446,0.008928149019243015,0.07634714888214003,0.07113321536810972,0.010225148266869946,0.024275749846085288,0.057639780245767845,0.061930241512969136,0.0008571196388207875,-0.00944428003518962,0.028608076545611087,0.0448523966418045,-0.009098165669044247,-0.009849416141019706,0.028084801367546063,0.03696358126373693,0.01437114710272862,-0.017913918092247072,0.027212166418404776,0.06265416433756811,0.03518906530764214,0.0028884494156317443,0.03592099294619648,0.08106318188334022,0.05363841503435079,-0.00037977496519601446,0.015790419328721595,0.0416663035799911,0.011926195643210838,-0.029876345671707695,0.010620721814689997,0.0487426508185749,0.04820372952443394,-0.0006679988819414445,0.011008534767808763,0.049366651814759695,0.058764528699946444,0.01743245703149245,0.010056429453112472,0.04631926415975231,0.07057845949211183,0.019932918908781322,0.010520820692175933,0.06412152074486258,0.08638050979268477,0.07488222624053968,0.09253594616287429,0.13934475607950178,0.16934164568717583,0.1365589079588696,0.12325907387492901,0.16331490304923513,0.20349817937083467,0.16880478029689297,0.13665519479524196,0.15543561466665726,0.17675337129209043,0.13769829230284228,0.08665422527878444,0.10103778245148204,0.1372924213515613,0.1252470956061775,0.06489425080967012,0.05542333789334687,0.0750507618874489,0.058442470990795414,0.003169853291898619,-0.010934544760811847,0.023378174573939682,0.05771049596146742,0.002534061890076485,-0.018767783987938016,0.015571203308366989,0.04505760112714107,0.011617363389113377,-0.01217324212879515,0.04626199426351945,0.07078299328365603,0.029930349340110785,-0.018235883215525404,-0.0011390731118309332,0.020729149758727694,0.04978307885913198,0.10779253943538461,0.25765783310423024,0.46550054537586627,0.6442129760422071,0.7962049112505013,0.9142050983687322,0.9110963075966507,0.6441092862508019,0.3019354828838786,0.07084367107354646,-0.0540357851390471,-0.13322032778882378,-0.15705808708182586,-0.11830399172155194,-0.03389259417919028,0.05263879323872573,0.04452808059299235,0.03131090575235061,0.05897250423040616,0.08397814112817466,0.036178787969591814,0.0051089886752400965,0.04159183541422218,0.0657998556664999,0.03419718538180175,0.019381444083197735,0.047980446164502144,0.05468264082565139,0.02014587150767977,-0.024163748761061612,0.011286698604730874,0.06602625317352578,0.057808808222932474,0.027780102757702884,0.04369958545310658,0.0,0.0,0.0,0.0,0.0,0.0,0.0,0.0,0.0,0.0,0.0,0.0,0.0,0.0,0.0,0.0,0.0,0.0,0.0,0.0,0.0,0.0,0.0,0.0,0.0,0.0,0.0,0.0,0.0,0.0,0.0,0.0,0.0,0.0,0.0,0.0,0.0,0.0,0.0,0.0,0.0,0.0,0.0,0.0,0.0,0.0,0.0,0.0,0.0,0.0,0.0,0.0,0.0,0.0,0.0,0.0,0.0,0.0,0.0,0.0,0.0,0.0,0.0,0.0,0.0,0.0,0.0,0.0,0.0,0.0,0.0,0.0,0.0,0.0,0.0,0.44953357270295474,0.527157553971756,0.5945565432699522,0.6589370738912396,0.688791435489058,0.7590646178897125,0.760819630389016,0.5851156869596918,0.2536587366205086,-0.011033479614711256,-0.23564829517124192,-0.4275163598650244,-0.5116844863516856,-0.2921861518028527,-0.05447765465460258,0.1192466363434939,0.2508340682486969,0.34519521088491123,0.38788374447693014,0.4200990751312059,0.4201328543919661,0.4267609940229686,0.4327876709803701,0.4334343828439534,0.41182319111216514,0.4018825331120589,0.37705242633982666,0.3760961484510934,0.372449822267254,0.3564838711291345,0.3572781269859895,0.34826318751000435,0.3415791348402692,0.3227503110853778,0.3232689846015785,0.3044616315642727,0.3002367446618265,0.26223984370217523,0.28486275859670973,0.2665201993413063,0.2870845337627665,0.2764206225139283,0.27810624896898417,0.2728119992555116,0.2774988853987869,0.28009310222093514,0.28303618362123184,0.3008655351764225,0.30214751313900606,0.3014166035771341,0.31562523624998895,0.34236869840496476,0.3453683371629273,0.34641069408756014,0.367280583900861,0.3620163652706623,0.36933546546274565,0.36988659537475627,0.3709306179415708,0.3773070922364929,0.39869263153692897,0.3770172385841293,0.36066491751442165,0.3617259709489968,0.36083599061270705,0.34104821402914637,0.33138370868528405,0.31973111154088335,0.29639685706576024,0.2589441443599618,0.22187087153942373,0.21660982299953346,0.18507285992325995,0.16836839201690318,0.1084062720500174,0.10194059438035656,0.07152419247538476,0.04132647610063642,0.020999770829106236,0.025035104458600917,0.014695402358955709,-0.005206355560783886,-0.0056627185826217145,-0.01331319324249704,-0.020924386117736306,-0.01400327574651926,-0.031282850279461746,-0.02197495369792261,-0.024808271970545265,-0.03012031487344704,-0.03550459868269689,-0.03371286938725838,-0.012654591182027553,-0.013464022968425996,-0.02162676960399936,-0.022627156864111337,-0.00920581926680201,-0.0007152404647681415,-0.006829211843491238,-0.015446366983242381,-0.004786872974782589,0.008219299638450573,0.006642635065952097,0.007425938421066271,0.025092527175365812,0.006420957670036431,-0.0026127076439258845,-0.004421526992238431,0.010678961749588952,0.003984552179185648,-0.000303200357125196,0.0026616041354486737,0.012885985598540949,0.01827967852278336,0.016430170683264692,0.007344312885277366,0.022481781355011596,0.025557491596398255,0.00931969984761641,-0.006869466726054099,0.003610435727956061,0.011733051803841477,0.02476382447256183,0.011256867182277832,-0.0021669241516622116,0.015952198958946593,0.01723219471642736,-0.0055783331517553925,-0.008922324078589484,-0.00247018498453077,0.00894743368794485,0.0011444807351649628,0.010421220931194918,0.017430461469982707,0.03911677386831536,0.02226046406138136,0.03703381825890854,0.013280654509722016,0.018753508123541773,0.03168503414875409,0.023049430580415874,0.043662733132089473,0.05240159398352693,0.04927317228695083,0.03912327404380634,0.07276709303300591,0.07762745155868311,0.08274389409054879,0.06634703396053475,0.08167015806758605,0.08032913557443554,0.08410360572231683,0.07848098967784202,0.11185410323309697,0.13099828377417674,0.14075521570297012,0.14596592842994702,0.17808474630405755,0.212917811986896,0.23352874100211382,0.2399162652844762,0.24659467569662089,0.28501324452003296,0.27532510734739135,0.26591305942075383,0.264027794070505,0.2865964927761172,0.23441120430547266,0.1945605354459007,0.19606501464239912,0.21955510896536354,0.233563033017135,0.24049226562485712,0.25242293551489337,0.26207833352350884,0.30331121365842717,0.31077538796325804,0.31106242021220015,0.31140668487374246,0.3190410011042729,0.3363577221695623,0.3367141529872209,0.35637173182975057,0.3759427615411745,0.39297394410703024,0.3904933752274701,0.39991627430485077,0.42604190956009413,0.4373757332038067,0.4435517925231831,0.46871867449832966,0.5394422027789859,0.6266384055638048,0.6963817049832332,0.7268406621186708,0.7808612611438612,0.8874134900288897,0.886745987007028,0.6336196798156752,0.331192500180155,0.09309939786933027,-0.0662239648828833,-0.18315093434008073,-0.2892096566320005,-0.37236069883488604,-0.4036009721074263,-0.2934056526270156,-0.10221774905166464,0.0780946959258646,0.21857916544247238,0.36044693059087035,0.44329108356690033,0.5010616370470049,0.4951227543943214,0.5199060872365955,0.5149957281576406,0.5070735296402987,0.49378531604561615,0.4606771042240094,0.453778802814221,0.45379274749737347,0.44141900506057496,0.4360666441847362,0.41117289231241355,0.4079175205536373,0.0,0.0,0.0,0.0,0.0,0.0,0.0,0.0,0.0,0.0,0.0,0.0,0.0,0.0,0.0,0.0,0.0,0.0,0.0,0.0,0.0,0.0,0.0,0.0,0.0,0.0,0.0,0.0,0.0,0.0,0.0,0.0,0.0,0.0,0.0,0.0,0.0,0.0,0.0,0.0,0.0,0.0,0.0,0.0,0.0,0.0,0.0,0.0,0.0,0.0,0.0,0.0,0.0,0.0,0.0,0.0,0.0,0.0,0.0,0.0,0.0,0.0,0.0,0.0,0.0,0.0,0.0,0.0,0.0,0.0,0.0,0.0,0.0,0.0,0.0,N
0.10779253943538461,0.25765783310423024,0.46550054537586627,0.6442129760422071,0.7962049112505013,0.9142050983687322,0.9110963075966507,0.6441092862508019,0.3019354828838786,0.07084367107354646,-0.0540357851390471,-0.13322032778882378,-0.15705808708182586,-0.11830399172155194,-0.03389259417919028,0.05263879323872573,0.04452808059299235,0.03131090575235061,0.05897250423040616,0.08397814112817466,0.036178787969591814,0.0051089886752400965,0.04159183541422218,0.0657998556664999,0.03419718538180175,0.019381444083197735,0.047980446164502144,0.05468264082565139,0.02014587150767977,-0.024163748761061612,0.011286698604730874,0.06602625317352578,0.057808808222932474,0.027780102757702884,0.04369958545310658,0.06929002565426064,0.048918338779584736,0.0019541810838540163,0.008253324945055754,0.07508790011238436,0.07182109263842332,0.032338614280800405,0.038914906263605116,0.09398225197417935,0.0935167453670987,0.06414454962987624,0.06152481350945318,0.126799638458445,0.1462657348752399,0.13203080944703852,0.13007419953271473,0.1815356734799026,0.19448435569244488,0.1810250033254555,0.18713376311261753,0.25636642223400113,0.2895300209136822,0.2454972238299354,0.23072596815530194,0.3032838750042789,0.31074487657364885,0.272462653071153,0.2440811474090935,0.26672621361492943,0.27506649045214804,0.2255443729105345,0.1786374210770604,0.18272479517385146,0.19424549394927043,0.15270142152753058,0.09679114237782142,0.09424591060537986,0.10392104707289969,0.06531576598475163,-0.004648696344848976,0.024662927963506772,0.07097435869891082,0.03507301133564148,0.006463391906690868,-0.0003532562064894493,0.038802095774977584,0.024716334330900015,-0.023270581068176963,-0.03259081710426238,0.023356036102507683,0.013908946700865817,-0.03916760493907231,-0.041525575134037096,0.011666986863649146,0.018789981873066956,-0.01290129833480634,-0.027762567366977874,0.01291550579271326,0.02687216817451555,0.009269143946228539,-0.013279069513438001,0.014875431971660911,0.03566745594525042,-0.008968264426104206,-0.017413182025765122,0.04662683267592739,0.05976357117357321,0.0244202221146138,-0.011010690528036795,0.02121887054619503,0.053368540652093135,0.037053484438858586,0.0037305958566652207,0.028406763302997153,0.05785777180675785,0.03885926436303428,-0.01164922689265434,0.01521090416554659,0.05411865148111698,0.04701129622880438,0.0011511185621976992,0.020578340722254375,0.061746459049967894,0.05449486828006928,0.015763013844459217,0.003620793986833133,0.05920184713564327,0.05669743804223073,0.008207437878687093,0.02260961147376365,0.06603387133184344,0.05138201948013473,-0.0019884773652761095,0.019638313316853562,0.060616702951378845,0.0386869060570293,-0.002599535643975424,-0.0003356384351760204,0.03822164992648184,0.038070689569008984,-0.00804562648713859,-0.0009286007167178186,0.049745779453199475,0.04236234652595204,-0.01339941200859118,-0.011082043328444077,0.03480045690270798,0.037151512957408483,-0.006444719893214929,-0.0016260949917496713,0.03951415170937192,0.058913304593413034,0.015444631473051907,0.0034705535958336454,0.049608690985451086,0.05224556159722779,0.02106233905845977,-0.010065519945402541,0.03870697010272457,0.07544448651398625,0.059020056065198265,0.04750395988318985,0.10622454728029868,0.14324539219030677,0.1319548069963583,0.09654893085515777,0.13622633043585802,0.16872600751823902,0.1529170080365648,0.14202625701031532,0.16024646173077534,0.2003167117861933,0.15335820953146675,0.11130587331142255,0.11528531167931876,0.14835467037273664,0.10889061370183045,0.07672814634812104,0.10024882096830946,0.1310556294345151,0.07720088266001995,0.023356409567484818,0.015482382217617212,0.04147194960276684,0.026312368159869814,-0.02516731689020962,-0.0186183780303869,0.029015399436099786,0.030627820522633867,-0.02104545869072211,-0.019554577118984555,0.025418513068785693,0.026771175673274382,0.003856642260836707,0.0026420092565080312,0.054577627230534956,0.048366022255939105,-0.01599564876696681,-0.027215567052553943,0.09696615262828433,0.23799726341003644,0.36442539302589233,0.5222195209378049,0.7670246221951467,0.9391516166046194,0.9297161318503354,0.7266072770021729,0.4604573238365303,0.2038280048071105,-0.026368701776716366,-0.18418838360244952,-0.17529503475899413,0.026920124560491976,0.0643892730443496,0.05567697721375759,-0.0016252397862828872,0.011046588234155576,0.059830952861216355,0.0552188385903881,0.014156925620629965,0.01649743320021055,0.057411604791901674,0.04013133308465158,-0.0038806915750141968,0.005227109074689092,0.05052850481739611,0.037674697586116135,-0.011549550756045785,-0.010034397147373815,0.03497237596591617,0.0,0.0,0.0,0.0,0.0,0.0,0.0,0.0,0.0,0.0,0.0,0.0,0.0,0.0,0.0,0.0,0.0,0.0,0.0,0.0,0.0,0.0,0.0,0.0,0.0,0.0,0.0,0.0,0.0,0.0,0.0,0.0,0.0,0.0,0.0,0.0,0.0,0.0,0.0,0.0,0.0,0.0,0.0,0.0,0.0,0.0,0.0,0.0,0.0,0.0,0.0,0.0,0.0,0.0,0.0,0.0,0.0,0.0,0.0,0.0,0.0,0.0,0.0,0.0,0.0,0.0,0.0,0.0,0.0,0.0,0.0,0.0,0.0,0.0,0.0,0.46871867449832966,0.5394422027789859,0.6266384055638048,0.6963817049832332,0.7268406621186708,0.7808612611438612,0.8874134900288897,0.886745987007028,0.6336196798156752,0.331192500180155,0.09309939786933027,-0.0662239648828833,-0.18315093434008073,-0.2892096566320005,-0.37236069883488604,-0.4036009721074263,-0.2934056526270156,-0.10221774905166464,0.0780946959258646,0.21857916544247238,0.36044693059087035,0.44329108356690033,0.5010616370470049,0.4951227543943214,0.5199060872365955,0.5149957281576406,0.5070735296402987,0.49378531604561615,0.4606771042240094,0.453778802814221,0.45379274749737347,0.44141900506057496,0.4360666441847362,0.41117289231241355,0.4079175205536373,0.40941133786766604,0.40844093134054066,0.40021029543020864,0.3799213823899607,0.3597103244217842,0.3202584465490033,0.309989999244015,0.32168017982926983,0.3263275458198557,0.3142846817587313,0.31219435698007,0.3079864985370961,0.3234618345115966,0.31267482905217064,0.29984250742753604,0.30434142267507286,0.3116742666192763,0.3170200270919134,0.3131366791248219,0.33633079236443625,0.35032373791590815,0.34786865837358194,0.35558930671346023,0.36139642571071373,0.3773935244799419,0.3769710342960759,0.37464822475256077,0.39220084387345877,0.39091640572680225,0.3828890063769256,0.3753718784489421,0.3780357945515297,0.36425783400502987,0.3558022745227368,0.33572030167123446,0.3039975030059082,0.27513451405221295,0.2491137237765108,0.21623832775820903,0.2079410012942319,0.1782307967747852,0.13918263317137805,0.11254835601592084,0.09346511621259934,0.10126404620978174,0.06817545170079035,0.04498239905993238,0.009883980926369235,0.003984880170769504,0.005483915100394666,-0.005000661473298344,-0.010558807729484365,0.005719993215501691,-0.014255825954424475,-0.03663859286865579,-0.05177382513908202,-0.016131197710922963,-0.021664915017400088,-0.022418746597966197,-0.03534021896864991,-0.014468913721050594,-0.013038686698411777,-0.03347347619665228,-0.0225485299787409,-0.018975184114065163,0.01837936358201154,-8.212075807585622e-07,-0.013625590123762533,-0.017652246587153267,0.009699381412863061,0.010369146706652052,0.001299940914155948,0.001854058238179678,-0.004898030047120079,0.0004059544910659028,0.008095302455246305,0.01333821127534988,0.008883383476196867,0.009254544748917347,-5.8076775430949666e-05,0.005146971619025947,0.022457149450896923,0.022845891789374073,0.01841724670403846,0.018855693606415966,0.007231621107240222,0.012584957682105533,0.008308143790786995,-0.0007535354599774954,-0.002496473218380234,0.017602463381851417,0.015999738085635876,0.00963808734048089,0.025137985309588752,0.026214042822222627,0.020130924732451608,0.002055892681149425,0.020384105083683608,0.021893624074915883,0.011429316155492496,-0.006164061642060674,0.007830552568548959,0.01712771897298627,0.012055957318712026,0.004718791571958359,-3.8677866617931465e-05,0.03650098781002956,0.022404691939147185,0.03993987421197211,0.040723323152084386,0.05137471487017673,0.028349343431034898,0.032138786455508925,0.03371466595967054,0.0645348039805654,0.061698131266655624,0.0711787051792147,0.09540009487412719,0.10291315161340438,0.09372115723033428,0.09202142327840943,0.08571897627639238,0.11352692563645053,0.10528250288903865,0.12147291107418078,0.130645558532729,0.14973633481290494,0.17390538637777136,0.2079899287231018,0.23263176353177537,0.2526661968229901,0.26324955374274134,0.2813119859634065,0.27539324033766927,0.27693747230178584,0.2569010996109047,0.22978933504754503,0.21252556131732422,0.21235419446479942,0.20264622590637346,0.20758012828799818,0.22955827116712949,0.25888471405760044,0.2568289155387332,0.24756485490978217,0.267362499468405,0.3041014901160599,0.30452940565557146,0.29039539166879724,0.27134979894758515,0.3030111604501535,0.3151850220987209,0.3320341374749571,0.31723332352051486,0.3481700951503836,0.36432147868294845,0.3680685747296216,0.3738879344374027,0.37931808761024405,0.43754314647013914,0.45899751536146477,0.5234752209146026,0.6115703631999112,0.6530658819111235,0.6817781993197946,0.7508761077968401,0.7465826352490379,0.5188252387736831,0.1715703575575005,-0.11379562162389935,-0.3083127988482574,-0.450755187609955,-0.43470024597170753,-0.22142733425410277,-0.02137832239977409,0.148582309533099,0.29336720228433155,0.3791769828246506,0.42543880871788914,0.4298028517855996,0.43104788194142707,0.4389170669416025,0.43169851173119594,0.42155048867028994,0.4303069293407935,0.41205493357147716,0.3910436280857555,0.37458389833220174,0.36998467454124856,0.3651973785950672,0.0,0.0,0.0,0.0,0.0,0.0,0.0,0.0,0.0,0.0,0.0,0.0,0.0,0.0,0.0,0.0,0.0,0.0,0.0,0.0,0.0,0.0,0.0,0.0,0.0,0.0,0.0,0.0,0.0,0.0,0.0,0.0,0.0,0.0,0.0,0.0,0.0,0.0,0.0,0.0,0.0,0.0,0.0,0.0,0.0,0.0,0.0,0.0,0.0,0.0,0.0,0.0,0.0,0.0,0.0,0.0,0.0,0.0,0.0,0.0,0.0,0.0,0.0,0.0,0.0,0.0,0.0,0.0,0.0,0.0,0.0,0.0,0.0,0.0,0.0,N
-0.027215567052553943,0.09696615262828433,0.23799726341003644,0.36442539302589233,0.5222195209378049,0.7670246221951467,0.9391516166046194,0.9297161318503354,0.7266072770021729,0.4604573238365303,0.2038280048071105,-0.026368701776716366,-0.18418838360244952,-0.17529503475899413,0.026920124560491976,0.0643892730443496,0.05567697721375759,-0.0016252397862828872,0.011046588234155576,0.059830952861216355,0.0552188385903881,0.014156925620629965,0.01649743320021055,0.057411604791901674,0.04013133308465158,-0.0038806915750141968,0.005227109074689092,0.05052850481739611,0.037674697586116135,-0.011549550756045785,-0.010034397147373815,0.03497237596591617,0.038801397690257367,-0.015472153729101877,-0.01896166376689672,0.028345502669910733,0.04178287703154752,0.006848027470018673,0.01791376250977516,0.05805795271970313,0.07164710824233622,0.044178174216580685,0.03615082483228523,0.09354778681684997,0.11234543157058348,0.09013674875590248,0.07774216373718336,0.14291783219523221,0.17921880224110684,0.14068576811160993,0.14346197466548172,0.20933124061736805,0.23426503708503654,0.2085925112453052,0.21216145280786788,0.2546544300905708,0.28284713546049384,0.2580307145841439,0.23585362160760398,0.27680192938057685,0.3034516290546707,0.2674107809150022,0.2412586494183549,0.24676461896708654,0.2573077790983831,0.18094071595423683,0.14588508214000317,0.15696944969904933,0.15853530053442536,0.10944005827351032,0.05564071329664543,0.06728825306984287,0.08146339328275487,0.049763239755345544,-0.01089023943728863,0.01078339767900359,0.044606545506401404,0.008304272387114474,-0.04007021951079283,-0.018269225254655692,0.0325665909006358,0.01807030284747315,-0.027894093639105326,-0.01581524127786207,0.025267600150120095,0.020347039168351115,-0.008806264893809968,-0.01138830129904494,0.03921123299916687,0.0244364572201948,-0.012165258756808421,-0.019788303949187496,0.035437907325121094,0.03012130277829991,-0.0188020102084227,-0.002456806573675016,0.03802775036191712,0.034908731959793694,-0.011812256556662338,-0.007775061792474259,0.039764505810665346,0.04128992386966164,0.008901557179933193,0.01034701594499282,0.06740423171723883,0.07120054516979234,0.026577318098639464,0.0061202802977352744,0.0437037578169042,0.06432659681773803,0.007504151514616817,-0.00578946336634478,0.05106110666495633,0.06434340923906094,0.014703459396229999,0.006179126318087028,0.03635221081072346,0.06409321192705923,0.028916811530190108,0.003407364589945722,0.01659890177736563,0.053975257011933744,0.021178185074948962,0.002888798587547361,0.032979561279418264,0.06790038072117816,0.04958427301405949,0.0022253653296633535,0.034698441919094464,0.062321921618930874,0.031866957345292345,-0.02279525016584459,0.014467791058982167,0.044459294396934815,0.04056603374410748,-0.018986530442685362,-0.003547511535234479,0.04333506195613175,0.02972440996275579,-0.01050483397232485,-0.0023474596419862863,0.03242456397627312,0.02606985677029206,-0.01173058177983061,-0.008390067399777611,0.04335392901793894,0.049147647636167476,0.008995834563364996,0.007583895170618913,0.08120810127791868,0.08228615021246316,0.061630596405837124,0.0894092182876442,0.16078639884802204,0.16447007917278203,0.13675411656011238,0.13570663581517173,0.19520053368657325,0.2063602171025722,0.1595067485612013,0.14173833590325777,0.17724657429229346,0.1740885376275608,0.10080677429034687,0.0711102279350258,0.10918752432403869,0.14002930209624082,0.08620619952426956,0.06626396345054776,0.08987246039966958,0.07476195728975427,0.011245904534506416,-0.008745535261113596,0.031714656991848424,0.05035669963575015,-0.010894803274373092,-0.0286564173222656,0.018839240913596955,0.03238955578457234,-0.017044004124895394,-0.020591229748155093,0.012066440160620232,0.044635524299525116,-0.007566607537471971,-0.02598863673193889,-0.008212338410347662,0.00947171036377957,-0.018904105015315056,0.042151635632777254,0.1902232459484557,0.3769251946706123,0.5224180918501583,0.6944473830564022,0.8905917233389022,0.9342255766513715,0.7237220412753896,0.40181444165287405,0.1475243000444793,-0.0488463157918555,-0.19941553014828803,-0.016284477771040595,-0.00027749265334854606,0.04216605924406476,0.014272306890728285,-0.02104883928677296,0.006370823062400249,0.04572877449900723,0.034125191586710193,-0.01149798161102488,0.010481933344179023,0.042004714911599024,0.027429543569442442,-0.02113988622696382,0.0003392511166473121,0.028969433910593007,0.016369865340512456,-0.02535403554021886,-0.00909384424106833,0.021610733217675617,0.006284673730754054,-0.023607885574100988,-0.0027304769921783077,0.04231634164370515,0.029284820038333235,-0.012778099969791151,0.0,0.0,0.0,0.0,0.0,0.0,0.0,0.0,0.0,0.0,0.0,0.0,0.0,0.0,0.0,0.0,0.0,0.0,0.0,0.0,0.0,0.0,0.0,0.0,0.0,0.0,0.0,0.0,0.0,0.0,0.0,0.0,0.0,0.0,0.0,0.0,0.0,0.0,0.0,0.0,0.0,0.0,0.0,0.0,0.0,0.0,0.0,0.0,0.0,0.0,0.0,0.0,0.0,0.0,0.0,0.0,0.0,0.0,0.0,0.0,0.0,0.0,0.0,0.0,0.0,0.0,0.0,0.0,0.0,0.0,0.0,0.0,0.0,0.0,0.0,0.37931808761024405,0.43754314647013914,0.45899751536146477,0.5234752209146026,0.6115703631999112,0.6530658819111235,0.6817781993197946,0.7508761077968401,0.7465826352490379,0.5188252387736831,0.1715703575575005,-0.11379562162389935,-0.3083127988482574,-0.450755187609955,-0.43470024597170753,-0.22142733425410277,-0.02137832239977409,0.148582309533099,0.29336720228433155,0.3791769828246506,0.42543880871788914,0.4298028517855996,0.43104788194142707,0.4389170669416025,0.43169851173119594,0.42155048867028994,0.4303069293407935,0.41205493357147716,0.3910436280857555,0.37458389833220174,0.36998467454124856,0.3651973785950672,0.35542994573824477,0.3286301219426867,0.3211329646024946,0.3378189803894089,0.3134028918810559,0.30598990841856843,0.30110003947073244,0.315704672128543,0.3014484184106991,0.29949412567060035,0.3026140454476292,0.29632056852475097,0.2782218447576848,0.2967330853998286,0.28413429802273643,0.3033545456767326,0.29392929488224306,0.2994290358166035,0.30535588272436553,0.33108281470524903,0.3379143777932504,0.36215654989477597,0.36027162320066736,0.37582043854848113,0.391875674702752,0.38666922246862934,0.39649791955919894,0.4213648539124906,0.42497931454799276,0.42669593551863766,0.4119948639804378,0.4123237477530566,0.41315854053850887,0.39271477113428227,0.37517553668848996,0.3726246986324086,0.31730224637595517,0.2914524807785209,0.2805399390444154,0.25793042897256313,0.19940781009078964,0.1678550117042406,0.14389251550673887,0.11781778163143361,0.08234700517749292,0.04713197315535044,0.02908242412620282,0.03543004327699587,0.005661646381859805,0.00023659349452091448,-0.01474450635478,-0.012694684603863434,-0.012995206105774865,-0.01567049428975236,-0.02800210132624281,-0.013719910974003015,-0.01397368850724374,-0.03120062495109334,-0.04364203954430962,-0.034375196323472454,-0.010667757617367605,-0.020914845397266273,-0.019151845482212382,-0.022317971924439704,-0.013478257350513667,-0.0144068850372069,-0.010584941397900116,-0.009267234049261726,-0.017707565038527426,-0.006867039596754549,0.006325285120349474,0.00977991318303137,0.018021315749670995,-0.0052346279214389455,0.012603320608246697,0.023154175637113198,0.043362158019041516,0.02484610326493571,0.013583352790163476,0.007162035207651214,0.02252584664233143,0.006454268979669358,0.024279938477113253,0.010684919976569061,0.023743332778659046,0.002975975758189446,0.004037341645922576,0.000320457720469482,0.035382509503024184,0.02454959619689103,0.035573269094390424,0.037007325167415686,0.02159992780747718,0.020810326226999444,0.008030755352458015,0.007461889059218541,0.014270907925714938,0.016366591935147088,0.021013285144945323,0.020958523208002802,0.028305372139556934,0.021284431161881636,0.014417974399333828,0.024647623982710913,0.02536475023820588,0.02141350782564294,0.03457410558126889,0.028559738987481455,0.03966706351403789,0.04612568554569061,0.03584283084625946,0.05479240083744652,0.05700884944014221,0.07152944389971644,0.04754917027361575,0.062493741687668324,0.06555754880624981,0.0833572115401074,0.10379775115470423,0.10752540884365695,0.12841390424094393,0.1277527864956118,0.12247841454489976,0.12468759970492194,0.1730905396142785,0.2168769946155099,0.22701094945582456,0.22768330192657557,0.25518108690734964,0.3022400211464916,0.30836654805779407,0.2904881415700239,0.2727890970649964,0.25283825876926014,0.24030037910685975,0.20612767545300595,0.191435342110305,0.21314299845702353,0.21316621940823371,0.2350366001650578,0.2472815828110374,0.25955815953284916,0.25248863296610097,0.2599220053847204,0.27457529133333375,0.29642256903232944,0.29156418182529154,0.2938437149436538,0.28871420722601565,0.3124357712929231,0.31174726233582434,0.3132279695109876,0.32168053338100283,0.34190602836861234,0.3666066483509102,0.364288333388886,0.39055554993975256,0.4308467645897642,0.49237358100479184,0.558150904330921,0.6111911778463317,0.6635375072178372,0.749005032013728,0.6763963122553072,0.4287108817976473,0.07120634308653238,-0.22198639569983195,-0.47029313670265505,-0.5261762377824137,-0.24689228780879038,-0.009830591057071427,0.17056116725423606,0.2822556902413716,0.3422582813578933,0.3917673770648705,0.387298797531097,0.38456403566092734,0.37636683272122556,0.3942202780162174,0.3776963107293075,0.38007925708653395,0.38690683083168637,0.3812953908836725,0.3536177249130344,0.33053653054230353,0.33387382844819374,0.32980253476705296,0.31110789498064517,0.30444586755840825,0.30501794785855363,0.3104435634385514,0.28688770919438095,0.265839097376303,0.0,0.0,0.0,0.0,0.0,0.0,0.0,0.0,0.0,0.0,0.0,0.0,0.0,0.0,0.0,0.0,0.0,0.0,0.0,0.0,0.0,0.0,0.0,0.0,0.0,0.0,0.0,0.0,0.0,0.0,0.0,0.0,0.0,0.0,0.0,0.0,0.0,0.0,0.0,0.0,0.0,0.0,0.0,0.0,0.0,0.0,0.0,0.0,0.0,0.0,0.0,0.0,0.0,0.0,0.0,0.0,0.0,0.0,0.0,0.0,0.0,0.0,0.0,0.0,0.0,0.0,0.0,0.0,0.0,0.0,0.0,0.0,0.0,0.0,0.0,N
0.042151635632777254,0.1902232459484557,0.3769251946706123,0.5224180918501583,0.6944473830564022,0.8905917233389022,0.9342255766513715,0.7237220412753896,0.40181444165287405,0.1475243000444793,-0.0488463157918555,-0.19941553014828803,-0.016284477771040595,-0.00027749265334854606,0.04216605924406476,0.014272306890728285,-0.02104883928677296,0.006370823062400249,0.04572877449900723,0.034125191586710193,-0.01149798161102488,0.010481933344179023,0.042004714911599024,0.027429543569442442,-0.02113988622696382,0.0003392511166473121,0.028969433910593007,0.016369865340512456,-0.02535403554021886,-0.00909384424106833,0.021610733217675617,0.006284673730754054,-0.023607885574100988,-0.0027304769921783077,0.04231634164370515,0.029284820038333235,-0.012778099969791151,0.015338555463025875,0.060421345098411815,0.07167620543381291,0.020083860717316382,0.048405941246315615,0.10342816818260438,0.11258038522950023,0.07829500623596353,0.10704042257866701,0.18431191272943992,0.20124549724274488,0.1602711788289082,0.17511285768619742,0.22884309351278834,0.26824175401362454,0.22799029053520073,0.2387446219315376,0.2811533525322358,0.30683043980063107,0.27464679871908537,0.25234725940459257,0.28106128002559416,0.2978805165845958,0.24231467420629943,0.21113650647158,0.23095337695865015,0.22433505313355143,0.1646586906959617,0.122078500814143,0.1473922359341337,0.12929359139351956,0.07986770142711525,0.03539359808774069,0.06360282166146013,0.07738165203618722,0.021068958657478723,-0.006151692507209033,0.012641708592514466,0.0387243045601143,-0.0005011872098350916,-0.04698170380008471,-0.01363068153744575,0.02937836865437592,-0.0026434958051571077,-0.03228191767247693,-0.006316832857876547,0.04137453008106504,0.014009727542388087,-0.015832080946780385,0.007492013091875035,0.033170427326125074,0.017649905249463565,-0.026975523639038535,0.0033273501968208324,0.03597412568046364,0.022574929384523004,-0.0199350224168976,-0.004456447895050524,0.04723637931911035,0.02868870395631265,-0.018967745290241565,0.005884977544036109,0.04760208250078056,0.04086093248235367,-0.0022388059042150153,-0.004272400784459908,0.0347625506875657,0.04470467880659193,-0.010735197945057269,0.003934779821881566,0.04516786362435475,0.042803286590850434,-0.010414128845959048,0.006491310445766514,0.05723174908135188,0.04261348407606682,0.023126518573788026,-0.0012257180639344244,0.030046448606762474,0.05404063361454964,0.0151126650416432,-0.004472996802922646,0.036417307540424736,0.05552548660754568,0.011723992133898948,-0.010303371485484833,0.018479689666750485,0.059365724327557455,0.013160828120534016,-0.0015783015856812683,0.03450733520096335,0.06335434669609037,0.029318623007242483,-0.007110449957151302,0.03391200254699291,0.0677086296119603,0.04105481834177436,-0.002496205558839437,0.02415875805548487,0.07747260732544423,0.03405612345426904,-0.0020515834297998,0.007863156948762553,0.05170566676538595,0.035119778307442735,-0.010439304379023712,0.011808716725237055,0.04621950237182826,0.05408483526894263,0.011212993598839002,0.05793488626414427,0.11683046752885462,0.13951285512569012,0.10904749020678434,0.12221347450401897,0.16449446079639718,0.19234003765239452,0.1501016990252011,0.15391124159815242,0.1965075356876802,0.1956255947675241,0.1343247193458441,0.10937758994684992,0.12803640161309324,0.13222753292707703,0.08807126657525888,0.07782103667905135,0.1111462041456468,0.10819592691899282,0.06170244006990359,0.005528162975694934,0.03644102164498445,0.045555288014893974,-0.0034313153246758204,-0.035526389844836866,0.0073266079580810075,0.03560087645041221,-0.006358060634201461,-0.038715409565110714,-0.0009914080246760204,0.051163571696030995,0.02338798063216129,-0.01415708485444784,0.01594771794392616,0.043536356513696146,0.008120536317069781,-0.037073896721504095,-0.00010986642271820047,0.11901395712626603,0.23561800927472873,0.3666392163032069,0.5725635061169234,0.7904827975666112,0.906677603684951,0.8388773926623875,0.6306187295883509,0.36656471045144484,0.09024455286048866,-0.12578090525609573,-0.2065318227640546,0.06815085637264015,0.05712003213291516,0.009587493464834363,-0.013952701714206312,0.034896184432740375,0.04484822296193236,-0.008282330121829915,-0.013191995053471206,0.0252896821808257,0.04426750254809781,0.005040684852934221,-0.01253850643637315,0.013315261658733563,0.04148269813142099,0.006649901112585262,-0.021007790678978698,0.02384601936882602,0.0444462768922622,0.006933623440998229,-0.008837163522658235,0.016502298080576887,0.04667377800280876,0.004268238198515762,-0.004245056173399035,0.03808332484671533,0.07561958164095874,0.02611572546024807,0.012977015888273267,0.0,0.0,0.0,0.0,0.0,0.0,0.0,0.0,0.0,0.0,0.0,0.0,0.0,0.0,0.0,0.0,0.0,0.0,0.0,0.0,0.0,0.0,0.0,0.0,0.0,0.0,0.0,0.0,0.0,0.0,0.0,0.0,0.0,0.0,0.0,0.0,0.0,0.0,0.0,0.0,0.0,0.0,0.0,0.0,0.0,0.0,0.0,0.0,0.0,0.0,0.0,0.0,0.0,0.0,0.0,0.0,0.0,0.0,0.0,0.0,0.0,0.0,0.0,0.0,0.0,0.0,0.0,0.0,0.0,0.0,0.0,0.0,0.0,0.0,0.0,0.39055554993975256,0.4308467645897642,0.49237358100479184,0.558150904330921,0.6111911778463317,0.6635375072178372,0.749005032013728,0.6763963122553072,0.4287108817976473,0.07120634308653238,-0.22198639569983195,-0.47029313670265505,-0.5261762377824137,-0.24689228780879038,-0.009830591057071427,0.17056116725423606,0.2822556902413716,0.3422582813578933,0.3917673770648705,0.387298797531097,0.38456403566092734,0.37636683272122556,0.3942202780162174,0.3776963107293075,0.38007925708653395,0.38690683083168637,0.3812953908836725,0.3536177249130344,0.33053653054230353,0.33387382844819374,0.32980253476705296,0.31110789498064517,0.30444586755840825,0.30501794785855363,0.3104435634385514,0.28688770919438095,0.265839097376303,0.2812044602246288,0.294305567926295,0.2785600567889183,0.2727093611643748,0.2864600694611011,0.2787088635402072,0.2664178992487656,0.276225756603916,0.2984778671043584,0.30900155454843203,0.32475337563127693,0.3167187078969316,0.34540111898061776,0.3624271436371862,0.3581328604734331,0.3518859891035913,0.3703108217633801,0.3771240761150706,0.39652697898173167,0.3873936019939527,0.39085748471970083,0.40208059561560416,0.39928676785069406,0.3945701861913708,0.3903452212558106,0.40112154295424013,0.39785668975604715,0.35392564895150097,0.34189905011986843,0.32063139506814786,0.30220347353720445,0.24788592911040705,0.24475952464076173,0.22747815455006531,0.19601975903459026,0.16003895861422116,0.13160884813864407,0.09860717797678908,0.08278340245369362,0.040561213286406224,0.0396587919903907,0.02440194141663568,0.016538807837249793,-0.008152218628694068,-0.006148106555467276,-0.021025409486036244,-0.01409864632097224,-0.04345851569079536,-0.04138274656762032,-0.027245298794036216,-0.020416200851708012,-0.03542398406172307,-0.03598669720556654,-0.022110840215181532,-0.017994038572239114,-0.016378909656838758,-0.017264724701204277,-0.0037130179409684207,0.004924500108138989,-0.005864619475715042,-0.009462124950727822,0.008653520420772283,0.002518391563420986,-0.013345119150841899,-0.005058996513264361,0.0007696817563187677,0.028342861543262536,0.019601034312240872,0.008423818100277376,0.009335097510454153,0.012664170740800371,-0.0009375284005273248,-1.0086425704747349e-05,0.008195228360750331,0.02126605746972307,0.012595457149994393,0.018482192463560306,0.014738604780224842,0.01346875948777349,0.012259921709390319,0.00869928922446201,0.01731017951294043,0.016324050129387698,0.022683542935008294,0.00494212959883107,0.00907571008725019,0.0036376179409319154,0.022506410894090723,0.010040814634790314,0.029152709320256112,0.029039566759616716,0.031482345856341624,0.014711680601334057,0.005347136145692906,0.025169295224921645,0.030633444266744286,0.021744923567141194,0.03238128225521893,0.040772508877752495,0.04934297436106817,0.04116121034017785,0.04284568144995407,0.047142284518870224,0.054055065432781206,0.05149056222313806,0.06364685907500843,0.07359105743451258,0.0764872126564567,0.0674990121403597,0.07082321399283233,0.11065623882542451,0.09747979498959261,0.10629793870014372,0.12985278820063745,0.14153029481617008,0.14858812260824417,0.18489722670144698,0.19722745985028772,0.23396483632418463,0.25639402482579154,0.24999306851954328,0.263144543743253,0.2740655984401,0.2803277002593147,0.2674036743791542,0.24737894305393274,0.21782086494801547,0.19565119725982202,0.19779060808344723,0.18551133539928605,0.20476553323556154,0.21924297749154728,0.2386020543821794,0.24104714633575525,0.2459121680564363,0.26769092015546,0.27490633953989435,0.2796302043769392,0.2769967373019228,0.28875276151371004,0.2955129899413433,0.29482687275023073,0.3060174723981971,0.3217923784941446,0.3396965594168057,0.33549828472565413,0.33577266849788767,0.3549958751762991,0.37860893719718325,0.40414838416044035,0.4823768500504022,0.5745351342514183,0.6249254432634143,0.6480112893399349,0.7066421486792346,0.6580106309924388,0.3883392659230854,0.023373281492584705,-0.27001331068784584,-0.4725333360177677,-0.4487401560596073,-0.23008459728200978,-0.007658848126147071,0.15569784571915207,0.29150568887088457,0.33450593031296866,0.3500889006450757,0.3649319870796851,0.3742579188130219,0.37328760038137565,0.3644984283172306,0.35762429600085793,0.3454610933202133,0.35951419289931247,0.3369285173414507,0.3430782763945595,0.3199438193055754,0.3183792292168838,0.3045560845509048,0.30271127812022247,0.2959494546708617,0.28914883524982293,0.26541107129946717,0.2610643659470965,0.26646596112132775,0.2768107022861406,0.26067810386115015,0.261649383498944,0.0,0.0,0.0,0.0,0.0,0.0,0.0,0.0,0.0,0.0,0.0,0.0,0.0,0.0,0.0,0.0,0.0,0.0,0.0,0.0,0.0,0.0,0.0,0.0,0.0,0.0,0.0,0.0,0.0,0.0,0.0,0.0,0.0,0.0,0.0,0.0,0.0,0.0,0.0,0.0,0.0,0.0,0.0,0.0,0.0,0.0,0.0,0.0,0.0,0.0,0.0,0.0,0.0,0.0,0.0,0.0,0.0,0.0,0.0,0.0,0.0,0.0,0.0,0.0,0.0,0.0,0.0,0.0,0.0,0.0,0.0,0.0,0.0,0.0,0.0,N
-0.00010986642271820047,0.11901395712626603,0.23561800927472873,0.3666392163032069,0.5725635061169234,0.7904827975666112,0.906677603684951,0.8388773926623875,0.6306187295883509,0.36656471045144484,0.09024455286048866,-0.12578090525609573,-0.2065318227640546,0.06815085637264015,0.05712003213291516,0.009587493464834363,-0.013952701714206312,0.034896184432740375,0.04484822296193236,-0.008282330121829915,-0.013191995053471206,0.0252896821808257,0.04426750254809781,0.005040684852934221,-0.01253850643637315,0.013315261658733563,0.04148269813142099,0.006649901112585262,-0.021007790678978698,0.02384601936882602,0.0444462768922622,0.006933623440998229,-0.008837163522658235,0.016502298080576887,0.04667377800280876,0.004268238198515762,-0.004245056173399035,0.03808332484671533,0.07561958164095874,0.02611572546024807,0.012977015888273267,0.06041095035765042,0.09826623870066277,0.08300528740940037,0.060609825502820944,0.12545025554537015,0.15656523290730004,0.15396550713739712,0.11766104495828326,0.1613754014090682,0.22463082436470702,0.22759311939437762,0.19930241819996714,0.23412298408986434,0.271573000430207,0.27536402425817486,0.24307861674629314,0.26665668496221934,0.29528910929334845,0.28058489127224695,0.23221846227224463,0.22034921145712139,0.2425517340404582,0.22139643620329524,0.15687505308308222,0.14091748112174543,0.16867465524209577,0.1312602653498997,0.0722127869792111,0.06168403807731572,0.08272511609809953,0.04580317721737063,0.008971684129727629,-0.0011690370578681794,0.0444007493317201,0.03195307874697121,-0.004653515223011646,-0.004946660039960543,0.026221189346240088,0.013833869489118442,-0.027605100305682934,-0.02310590918696286,0.015223516751544134,0.012371631333973626,-0.031670100446638684,-0.03222937045454536,0.010688233104674883,0.03417436867213422,-0.015001541037835853,-0.027966797466798695,0.024310726946404834,0.04021527746449598,0.017328609369007392,-0.020153724420356955,0.03664464737392874,0.05223711334498933,0.021787418006909882,0.0033648598317111184,0.040521901782746145,0.05825772299785279,0.03237984300588092,0.004020759619163958,0.04092680746537857,0.05357976320964699,0.03472264945532629,-0.013223961378657497,0.01861632437160947,0.05766207450165347,0.024073400439590113,-0.016822608981062453,0.005139923563404042,0.043994660971931554,0.0295806961578813,-0.004226557509051613,0.0030621641519057627,0.051450166129583634,0.03448474324375646,0.0005580164935278826,0.010159206597266676,0.056032807482564076,0.04140344842291719,0.014662744243560497,0.002427012895120018,0.04824868001467421,0.06261016553144343,0.014060554417557769,0.001799157738517054,0.047602674541968974,0.061952891164344874,0.013398262215013465,-0.006120891602703611,0.027590959422508915,0.0467906582000116,-0.004167818172651087,-0.01640782540668088,0.01975004515700078,0.04140312806299894,0.0074237489630587985,-0.021698887505672143,0.0121049317466121,0.0459342597742184,0.03624372453556471,0.0048129938898686785,0.06536082276438297,0.11385504344772804,0.09465224999633569,0.07792009747842532,0.1410841309867552,0.17285206058308875,0.15387015919519156,0.11801183291964372,0.15721662478853926,0.21825622205903267,0.20435134619042183,0.1396943487907069,0.1331574647120255,0.17505896333355503,0.15651881667470302,0.08720938846127625,0.083258254683233,0.1301420161393919,0.12381704347923674,0.08121177807198332,0.06280422191636229,0.08552179123748153,0.06951341109548936,0.009930666228061583,-0.013394301193312903,0.016464786206021154,0.01723784668688649,-0.03527837752751549,-0.029797782401826938,0.028835274972555135,0.04625945443550084,0.012794176651374074,0.01069789927392368,0.03754811098514679,0.05946933940579271,0.015971925701496907,-0.02278354716460495,-0.015670029232160616,0.010696969895467884,0.03212288369629197,0.10667454273574609,0.2754824359646723,0.4804788873887529,0.6490781170299125,0.807889574088085,0.9544860092294644,0.9098159603848471,0.6351515499135673,0.32160852181179883,0.09013526588867596,-0.05203579423330051,-0.13880341089409526,-0.1532528500326997,-0.08813400897845504,0.05172050181706936,0.021960456202128775,0.02825389314137144,0.06819566093788713,0.052280107195834834,-0.00980112988648511,-0.0019006786530734252,0.03244577137205621,0.030347075800592194,0.0014955608732533177,-0.010544236904273146,0.05230893806747308,0.05700044323135459,0.034998275630088706,0.01777014730417654,0.04646141301712593,0.07027807039505074,0.019070249328229694,-0.00553100725307696,0.02552161537225685,0.04933668908438895,0.029636656869958956,0.00030789346145217606,0.021850624122628375,0.04347016886235245,0.004693920721983744,-0.007364224463591645,0.0363426993845987,0.0,0.0,0.0,0.0,0.0,0.0,0.0,0.0,0.0,0.0,0.0,0.0,0.0,0.0,0.0,0.0,0.0,0.0,0.0,0.0,0.0,0.0,0.0,0.0,0.0,0.0,0.0,0.0,0.0,0.0,0.0,0.0,0.0,0.0,0.0,0.0,0.0,0.0,0.0,0.0,0.0,0.0,0.0,0.0,0.0,0.0,0.0,0.0,0.0,0.0,0.0,0.0,0.0,0.0,0.0,0.0,0.0,0.0,0.0,0.0,0.0,0.0,0.0,0.0,0.0,0.0,0.0,0.0,0.0,0.0,0.0,0.0,0.0,0.0,0.0,0.3549958751762991,0.37860893719718325,0.40414838416044035,0.4823768500504022,0.5745351342514183,0.6249254432634143,0.6480112893399349,0.7066421486792346,0.6580106309924388,0.3883392659230854,0.023373281492584705,-0.27001331068784584,-0.4725333360177677,-0.4487401560596073,-0.23008459728200978,-0.007658848126147071,0.15569784571915207,0.29150568887088457,0.33450593031296866,0.3500889006450757,0.3649319870796851,0.3742579188130219,0.37328760038137565,0.3644984283172306,0.35762429600085793,0.3454610933202133,0.35951419289931247,0.3369285173414507,0.3430782763945595,0.3199438193055754,0.3183792292168838,0.3045560845509048,0.30271127812022247,0.2959494546708617,0.28914883524982293,0.26541107129946717,0.2610643659470965,0.26646596112132775,0.2768107022861406,0.26067810386115015,0.261649383498944,0.2700764580324728,0.2545348461904035,0.2513434403198078,0.24359186266440905,0.26517702175125024,0.27983042971876965,0.2730573626776633,0.27391187730121086,0.29451048397570506,0.3034181438133195,0.32968470608871414,0.33219432455653874,0.3520909551201852,0.3579332598535348,0.37876450109059984,0.37346197306980194,0.39767925335090737,0.38367587632540817,0.38226265498974626,0.3886010321032679,0.383333812540467,0.3809742201710244,0.3790973811953848,0.3728570625142954,0.3525662266844055,0.3448277884059952,0.3157565388333049,0.2919519056965398,0.2637199215142666,0.24555970333148655,0.21325777873605342,0.18856908166063288,0.16663348103443845,0.15226772065566035,0.11883480358333237,0.09776387782419524,0.0817722263534316,0.041801553469469135,0.02379624189608737,0.01079465020579607,0.014868471133050494,-0.0027191995614661967,-0.0057022531729428606,-0.02313959224470859,-0.023603216891135093,-0.00711583653708204,-0.03660373344530698,-0.049180883587091634,-0.0400246918653504,-0.02608298085642302,-0.0363970429339035,-0.04193878630189452,-0.0209350247312089,2.3236201142874567e-06,0.0015216927071740377,-0.011533939240586055,-0.0101270573162235,-0.00151086731751176,0.004642932599624505,-0.0037566666169404537,-0.009767244090840385,0.0059734323662156965,0.016858888687378663,0.01321880193881141,0.011996763606792098,0.022877935797800574,0.016836149776958815,0.020492574277423462,0.009659750851081278,0.01821702487325751,0.012298969419828283,0.013687518339259136,-0.004224544586756551,0.014216946558155428,0.0133716553066776,0.017441170250435928,-0.014698256449318846,-0.003197738407374767,-0.0012769864769508954,0.008008770703173554,0.005312609378990912,0.026935017610353742,0.007559370893025326,0.012519449191878364,0.015209726388273654,0.022896975766673617,0.02833116799133124,0.050876157956179405,0.027634208327038622,0.03603568424752208,0.027699182403196347,0.031665661016286796,0.04068412338416294,0.03298668790431175,0.049711084697105765,0.056991791662994305,0.05967430900454319,0.05534548867957119,0.06336697413171828,0.07648613336262233,0.07535274539606931,0.0817469321113146,0.07873716776634661,0.10020006088501442,0.10258928459024831,0.10042491729098416,0.12758215987850482,0.133254806118638,0.14647800801008817,0.16725279813437433,0.20283783996876395,0.24355477972636033,0.26520752285948923,0.2895683911899065,0.3166332906443878,0.3294604983075784,0.3135261625262673,0.30027441848808006,0.29453383503527125,0.28177584420923274,0.24263149652498872,0.22789461204763353,0.23271034582706523,0.2473838045829289,0.2743162036261219,0.2723573416337861,0.3019727317030878,0.300234349286076,0.3058297459721838,0.31631424689296145,0.3389194657456142,0.3687781625131316,0.3526323140092494,0.36061422901529944,0.3854319114359633,0.3859192001044304,0.4031694572666051,0.40085157385731124,0.40795769453618497,0.4462195964192042,0.45510556626160165,0.4660209280072851,0.4982714579293501,0.5469660579102893,0.6386640460470568,0.7128216461768526,0.7548615229599746,0.7937529566632222,0.8874949063889348,0.8110061943289071,0.5521131949168717,0.21719149455680575,-0.014802448055401454,-0.2020197941837652,-0.36147957357359967,-0.4545341722320576,-0.43282381789241753,-0.272140101827558,-0.03775331090571884,0.16396139602839718,0.3209911694098778,0.45035579300998524,0.47471472292888084,0.522378789918442,0.5063250070118651,0.4992117676357494,0.5035307551623673,0.49999606704778704,0.49351382738026306,0.469632024838945,0.4743825412487515,0.46669455084501216,0.44904503566508264,0.44326427970233445,0.42763014201022825,0.42396844503555875,0.41781105664546647,0.39952663372205927,0.39335410609250926,0.3920774983790683,0.35944541529030294,0.34630486057675275,0.3551119521899557,0.3278347158422409,0.0,0.0,0.0,0.0,0.0,0.0,0.0,0.0,0.0,0.0,0.0,0.0,0.0,0.0,0.0,0.0,0.0,0.0,0.0,0.0,0.0,0.0,0.0,0.0,0.0,0.0,0.0,0.0,0.0,0.0,0.0,0.0,0.0,0.0,0.0,0.0,0.0,0.0,0.0,0.0,0.0,0.0,0.0,0.0,0.0,0.0,0.0,0.0,0.0,0.0,0.0,0.0,0.0,0.0,0.0,0.0,0.0,0.0,0.0,0.0,0.0,0.0,0.0,0.0,0.0,0.0,0.0,0.0,0.0,0.0,0.0,0.0,0.0,0.0,0.0,N
0.03212288369629197,0.10667454273574609,0.2754824359646723,0.4804788873887529,0.6490781170299125,0.807889574088085,0.9544860092294644,0.9098159603848471,0.6351515499135673,0.32160852181179883,0.09013526588867596,-0.05203579423330051,-0.13880341089409526,-0.1532528500326997,-0.08813400897845504,0.05172050181706936,0.021960456202128775,0.02825389314137144,0.06819566093788713,0.052280107195834834,-0.00980112988648511,-0.0019006786530734252,0.03244577137205621,0.030347075800592194,0.0014955608732533177,-0.010544236904273146,0.05230893806747308,0.05700044323135459,0.034998275630088706,0.01777014730417654,0.04646141301712593,0.07027807039505074,0.019070249328229694,-0.00553100725307696,0.02552161537225685,0.04933668908438895,0.029636656869958956,0.00030789346145217606,0.021850624122628375,0.04347016886235245,0.004693920721983744,-0.007364224463591645,0.0363426993845987,0.09711763394615641,0.08303534175806876,0.06185409205650553,0.09407337561513898,0.15067256007911992,0.13730527315462224,0.11446947261517935,0.15959861070813253,0.2194750281892625,0.21910517796393028,0.1947893192777833,0.221537886708119,0.2654848915988074,0.28550487431849597,0.25982668324014446,0.28039209735636444,0.32542723838232773,0.341703918500968,0.2929285037592008,0.2782950996857391,0.28812089787994566,0.28368824532253,0.22385859396111607,0.20540087973208715,0.2186269244206219,0.2175557063785564,0.15378565639450845,0.10472574776556882,0.11875073171739134,0.11358429670269356,0.0746942614212292,0.023839693080212276,0.03600728284466704,0.04585524582256986,0.02675288794302296,-0.009219443283560664,0.0226020987466798,0.047198244197364736,0.02342197222196825,-0.02696815887375405,-0.004791166178827774,0.024613594048269728,-0.0016733248615557023,-0.04011549778713359,-0.02782070521266154,0.006167815063295227,-0.008321257076969532,-0.0422616410177912,-0.032753903623735404,0.01778013352443039,0.017401946608721765,-0.014532173374086068,-0.007857479436429666,0.04710579525081876,0.04632380583330977,-0.002942624356854928,0.0033452735372469945,0.048253826492039464,0.04468516632828736,0.0023193607414730283,-0.006257930855250564,0.03831094192534853,0.04166986582990981,0.003821258765616693,-0.01958521785196292,0.015002806143463896,0.05436138437003597,0.033169223288880195,0.0022385701268213187,0.03415659612193397,0.06844046774664847,0.02525154526164444,-0.005887343272999975,0.01615741537314204,0.052677997584432174,0.01899686481482649,-0.00020197486996947837,0.016859576467923153,0.0677650916680334,0.03880315555658053,0.004979459564832659,0.03646059225108762,0.08485985027512918,0.06549853156483612,0.00015350460707059215,-0.002298330174498233,0.03394993330348219,0.03147742203661338,-0.009714365014089708,-0.017040453416834873,0.03369596555292157,0.03846223474719677,-0.005157385460777373,-0.007639558722285313,0.023761364119157476,0.04308048712057421,0.009191704389359956,-0.007736401654098619,0.04310907002329331,0.06253558083982029,0.028772918383496576,0.01198982585108962,0.036385268431446204,0.06325233622078133,0.017592120960024,-0.011071700727032863,0.028073188965258736,0.06486743822430352,0.05334609915752376,0.0370637133932118,0.0813496456865303,0.14507708061584015,0.12905188972496381,0.10102157474546151,0.11663572000646388,0.18557377058589894,0.18202514038170464,0.14470121656751084,0.14376538376299658,0.18889394236685178,0.1712092069496314,0.11248308675637579,0.09013408684380426,0.1331910612812775,0.1376124198949283,0.09855353812802904,0.07891382736244756,0.10771984421201355,0.1002833925773961,0.056596642760911774,0.012943080076857932,0.02980045114228046,0.056351534143397504,0.012745505121016399,-0.02360420378297037,0.010199049274226688,0.04882306381915528,0.012418861811539235,-0.019178786616864365,0.014509191142622549,0.052990968253594145,0.03335519090509263,-0.00327321923904243,0.008425036995036507,0.03699139259315486,0.019514330844201937,-0.01739803606183498,0.08109339120897835,0.25207846623033964,0.4060326383944319,0.5647250004165345,0.7596004325631192,0.9567757219035576,0.9723576829320907,0.7289043411225851,0.41510884730607955,0.1906272546487524,-0.024412447658483306,-0.16229650341661694,-0.18434229038726507,-0.09298249345035595,-0.03338009625540964,0.0041558343150914735,0.022061039202020804,0.07599923599619733,0.07646676626746918,0.05251285859072032,0.011411269349637182,0.042696942935885523,0.07864022882602816,0.04667235415472079,0.012133055285461061,0.030684017505590667,0.07572541486490247,0.043234726278021884,0.015487043034410834,0.02152924282078228,0.07105249045986384,0.050355667269760485,0.010260200450669669,0.016103991996029795,0.050963442026004696,0.0,0.0,0.0,0.0,0.0,0.0,0.0,0.0,0.0,0.0,0.0,0.0,0.0,0.0,0.0,0.0,0.0,0.0,0.0,0.0,0.0,0.0,0.0,0.0,0.0,0.0,0.0,0.0,0.0,0.0,0.0,0.0,0.0,0.0,0.0,0.0,0.0,0.0,0.0,0.0,0.0,0.0,0.0,0.0,0.0,0.0,0.0,0.0,0.0,0.0,0.0,0.0,0.0,0.0,0.0,0.0,0.0,0.0,0.0,0.0,0.0,0.0,0.0,0.0,0.0,0.0,0.0,0.0,0.0,0.0,0.0,0.0,0.0,0.0,0.0,0.4660209280072851,0.4982714579293501,0.5469660579102893,0.6386640460470568,0.7128216461768526,0.7548615229599746,0.7937529566632222,0.8874949063889348,0.8110061943289071,0.5521131949168717,0.21719149455680575,-0.014802448055401454,-0.2020197941837652,-0.36147957357359967,-0.4545341722320576,-0.43282381789241753,-0.272140101827558,-0.03775331090571884,0.16396139602839718,0.3209911694098778,0.45035579300998524,0.47471472292888084,0.522378789918442,0.5063250070118651,0.4992117676357494,0.5035307551623673,0.49999606704778704,0.49351382738026306,0.469632024838945,0.4743825412487515,0.46669455084501216,0.44904503566508264,0.44326427970233445,0.42763014201022825,0.42396844503555875,0.41781105664546647,0.39952663372205927,0.39335410609250926,0.3920774983790683,0.35944541529030294,0.34630486057675275,0.3551119521899557,0.3278347158422409,0.32741212311598883,0.31758387484755446,0.3225743955275834,0.3230563420126146,0.3238953025731715,0.3154385236264905,0.30980672197066084,0.33121630935413493,0.3385568789196569,0.3512027284433301,0.347395737630727,0.37070129974587684,0.382421620501848,0.3801488685341541,0.39292620794195743,0.4014058135081524,0.41043243967055665,0.41759047055213117,0.4180427836850428,0.40936962307770147,0.41818259566775395,0.43479944511578783,0.4229218254548538,0.38254103314972066,0.37171315634233976,0.3638114654686282,0.33462682682731765,0.33011246608910366,0.30670012193248625,0.3055007874745038,0.2611679274733502,0.2220678373273057,0.19543478130887681,0.1788240956369986,0.14559559507073713,0.11991674324920158,0.08724300497598586,0.08383778847148897,0.04434697974004244,0.041324948027021774,0.033611482698879744,0.018757437354869323,-0.008105956891766082,-0.00587792857164105,-0.02781565886471928,-0.03523650226109262,-0.03784425933518614,-0.04533938319370998,-0.03354636973839001,-0.019416132915684867,-0.03199367190990937,-0.03741632622924892,-0.028432394697616277,-0.017142257016702488,-0.013224137382106115,-0.016676813760624108,-0.022658898968809658,-0.006971786097138762,-0.0034816219269953176,-0.007342620062544052,0.005646972074903343,0.018558879326804868,0.0023675261567769313,-0.006627486193862016,0.02061506839278697,0.001842141930383818,0.004806757930213907,0.012581025691984282,0.015495393767401092,0.001460793374445787,0.00919662125465226,-0.004839183726684939,0.0029116307420874107,0.0034241438371891146,0.016062508748611228,0.002123955259315683,-0.002091279873795626,0.013103030771844205,0.018682042432850095,0.009815389116645588,-0.0062301164365766715,0.018943014722566598,0.020018505260496484,0.02119979698662164,0.01281786961747694,0.023914867728152312,0.018207602232290926,0.015060216326911053,0.021739490028038565,0.02131758376465524,0.040416728983025174,0.028236508826413674,0.04043229921267609,0.02620334001888871,0.036365754961674185,0.024957359597105176,0.021018874938963213,0.026976898499673132,0.05009683155447755,0.046835397493605414,0.05349106536680406,0.05071461818911965,0.06270675123500398,0.055600999919507954,0.05601694683883248,0.05912098901242762,0.06975706108939428,0.09034934768529201,0.09670768591581619,0.09367491429307874,0.11028793207672442,0.1247746271513054,0.12745960810469464,0.13286140393759188,0.16517572406704117,0.18569179845956452,0.21376493748937345,0.23003825221414717,0.25144560129582116,0.2949196932050698,0.29754998304088465,0.2883637195904488,0.2746115740336639,0.30225404658937327,0.2769219075599679,0.263928408264958,0.23180723827046615,0.2434494902158271,0.23593346741717933,0.2431144330870602,0.26739356319891866,0.30149300043965316,0.30184173409940246,0.2998703332897868,0.3173300401993707,0.35419550780768594,0.349953441729157,0.357803134744693,0.37529467801028055,0.39271801038044357,0.3858444676647385,0.39576869165476847,0.41035539749068073,0.4223062303263567,0.4267402379672864,0.44054944654517414,0.44675138649018703,0.47191156519999167,0.506301439886378,0.595837560061024,0.689655766584558,0.7344694667012119,0.7834446142346195,0.8437738565177518,0.9008708338031426,0.7732026119009019,0.4534324711259,0.15680963321080274,-0.04900566741845136,-0.1786154309563625,-0.2780699096307768,-0.3667883884890411,-0.4206135562223549,-0.34276962376712333,-0.16467192848751155,0.03390766679464836,0.19982694180528965,0.35252713958989895,0.45822050663013597,0.507312071057925,0.5168185686172158,0.5255292883489688,0.5311002099151654,0.5263457764741515,0.5185945022548015,0.4812999077567596,0.4943689153653935,0.4804415031077763,0.4710306264532345,0.4395799323772695,0.4490505265603114,0.4269118687817384,0.0,0.0,0.0,0.0,0.0,0.0,0.0,0.0,0.0,0.0,0.0,0.0,0.0,0.0,0.0,0.0,0.0,0.0,0.0,0.0,0.0,0.0,0.0,0.0,0.0,0.0,0.0,0.0,0.0,0.0,0.0,0.0,0.0,0.0,0.0,0.0,0.0,0.0,0.0,0.0,0.0,0.0,0.0,0.0,0.0,0.0,0.0,0.0,0.0,0.0,0.0,0.0,0.0,0.0,0.0,0.0,0.0,0.0,0.0,0.0,0.0,0.0,0.0,0.0,0.0,0.0,0.0,0.0,0.0,0.0,0.0,0.0,0.0,0.0,0.0,N
