0.43249384160799403,0.42200508980715395,0.4108749006604295,0.3985127429025745,0.38634491109643215,0.3749767494674252,0.36497996250597997,0.35678069177200694,0.3499744749395552,0.34540098616599757,0.34258035946710164,0.3407507612602739,0.3391073408679869,0.3365021629500097,0.3334590941785266,0.3298655033465505,0.32578443114288813,0.3214339899639668,0.31667613602089595,0.312558207163268,0.3091329689657916,0.3062169327761928,0.3035038474082207,0.3002626128870023,0.297016173010217,0.2935684830817823,0.28976983063993295,0.2855737048524745,0.28063342835004745,0.2757995487769792,0.27112539086893633,0.26655793101649966,0.2620046492265626,0.2570094376930377,0.25222314133331747,0.24758836467915935,0.24301454445518944,0.2384355936006506,0.23347982839985243,0.22880569957336205,0.22437817862917378,0.2200881594482568,0.21581401414337995,0.21115796680981605,0.20663228761934532,0.20217785309329242,0.19771402808391886,0.1931924346861093,0.1883656533418326,0.1837790550796567,0.17948536778261573,0.17548272889878225,0.1717251788317813,0.16788750101056218,0.16420605852753614,0.16035587278905808,0.1558755576801439,0.15025792297745325,0.1428648518975001,0.13376813203414994,0.12289099432200845,0.0,0.0,0.0,0.0,0.0,0.0,0.0,0.0,0.0,0.0,0.0,0.0,0.0,0.0,0.0,0.0,0.0,0.0,0.0,0.0,0.0,0.0,0.0,0.0,0.0,0.0,0.0,0.0,0.0,0.0,0.0,0.0,0.0,0.0,0.0,0.0,0.0,0.0,0.0,0.0,0.0,0.0,0.0,0.0,0.0,0.0,0.0,0.0,0.0,0.0,0.0,0.0,0.0,0.0,0.0,0.0,0.0,0.0,0.0,0.0,0.0,0.0,0.0,0.0,0.0,0.0,0.0,0.0,0.0,0.0,0.0,0.0,0.0,0.0,0.0,0.0,0.0,0.0,0.0,0.0,0.0,0.0,0.0,0.0,0.0,0.0,0.0,0.0,0.0,0.0,0.0,0.0,0.0,0.0,0.0,0.0,0.0,0.0,0.0,0.0,0.0,0.0,0.0,0.0,0.0,0.0,0.0,0.0,0.0,0.0,0.0,0.0,0.0,0.0,0.0,0.0,0.0,0.0,0.0,0.0,0.0,0.0,0.0,0.0,0.0,0.0,0.0,0.0,0.0,0.0,0.0,0.0,0.0,0.0,0.0,0.0,0.0,0.0,0.0,0.0,0.0,0.0,0.0,0.0,0.0,0.0,0.0,0.0,0.0,0.0,0.0,0.0,0.0,0.0,0.0,0.0,0.0,0.0,0.0,0.0,0.0,0.0,0.0,0.0,0.0,0.0,0.0,0.0,0.0,0.0,0.0,0.0,0.0,0.0,0.0,0.0,0.0,0.0,0.0,0.0,0.0,0.0,0.0,0.0,0.0,0.0,0.0,0.0,0.0,0.0,0.0,0.0,0.0,0.0,0.0,0.0,0.0,0.0,0.0,0.0,0.0,0.0,0.0,0.0,0.0,0.0,0.0,0.0,0.0,0.0,0.0,0.0,0.0,0.0,0.0,0.0,0.0,0.0,0.0,0.0,0.0,0.0,0.0,0.0,0.0,0.0,0.0,0.0,0.0,0.0,0.0,0.0,0.0,0.0,0.0,0.0,0.0,0.0,0.0,0.4891958709900965,0.4805960446785189,0.4718880717286048,0.4623287104724648,0.45301915735026366,0.444023117992411,0.4353444700394595,0.4269600337614153,0.418237556253757,0.41012098676053094,0.4024330406935871,0.39489220956921056,0.3872494926939457,0.3788345864992086,0.3706179040206483,0.3626568717267476,0.3549653730277906,0.3475389516264761,0.33985473475264344,0.3327420545577011,0.3260361835498282,0.3194717641559169,0.3128113525975792,0.30547546981621637,0.29829736810317725,0.29132862274587595,0.2845885780030711,0.2780837535686823,0.2713902238455599,0.26521600564470793,0.25941105345752796,0.25373316993920836,0.24796496650838382,0.24161960975406316,0.23539924965162318,0.2293501595713086,0.22349472250710908,0.21784617944808532,0.21206789487642014,0.2067515299643237,0.20176194563340208,0.19688205759199587,0.19191729211084185,0.18646788958361057,0.18111626930235203,0.17590408510359443,0.17085557358053544,0.16598840477359839,0.16104184474303931,0.15650116143941278,0.1522454294099862,0.14808210310127914,0.14383924176498356,0.1391953865099383,0.13462616667382604,0.1301692376440342,0.1258501913725339,0.12169007875636875,0.11749383400489109,0.11365243350101856,0.11005849008766243,0.0,0.0,0.0,0.0,0.0,0.0,0.0,0.0,0.0,0.0,0.0,0.0,0.0,0.0,0.0,0.0,0.0,0.0,0.0,0.0,0.0,0.0,0.0,0.0,0.0,0.0,0.0,0.0,0.0,0.0,0.0,0.0,0.0,0.0,0.0,0.0,0.0,0.0,0.0,0.0,0.0,0.0,0.0,0.0,0.0,0.0,0.0,0.0,0.0,0.0,0.0,0.0,0.0,0.0,0.0,0.0,0.0,0.0,0.0,0.0,0.0,0.0,0.0,0.0,0.0,0.0,0.0,0.0,0.0,0.0,0.0,0.0,0.0,0.0,0.0,0.0,0.0,0.0,0.0,0.0,0.0,0.0,0.0,0.0,0.0,0.0,0.0,0.0,0.0,0.0,0.0,0.0,0.0,0.0,0.0,0.0,0.0,0.0,0.0,0.0,0.0,0.0,0.0,0.0,0.0,0.0,0.0,0.0,0.0,0.0,0.0,0.0,0.0,0.0,0.0,0.0,0.0,0.0,0.0,0.0,0.0,0.0,0.0,0.0,0.0,0.0,0.0,0.0,0.0,0.0,0.0,0.0,0.0,0.0,0.0,0.0,0.0,0.0,0.0,0.0,0.0,0.0,0.0,0.0,0.0,0.0,0.0,0.0,0.0,0.0,0.0,0.0,0.0,0.0,0.0,0.0,0.0,0.0,0.0,0.0,0.0,0.0,0.0,0.0,0.0,0.0,0.0,0.0,0.0,0.0,0.0,0.0,0.0,0.0,0.0,0.0,0.0,0.0,0.0,0.0,0.0,0.0,0.0,0.0,0.0,0.0,0.0,0.0,0.0,0.0,0.0,0.0,0.0,0.0,0.0,0.0,0.0,0.0,0.0,0.0,0.0,0.0,0.0,0.0,0.0,0.0,0.0,0.0,0.0,0.0,0.0,0.0,0.0,0.0,0.0,0.0,0.0,0.0,0.0,0.0,0.0,0.0,0.0,0.0,0.0,0.0,0.0,0.0,0.0,0.0,0.0,0.0,0.0,0.0,0.0,0.0,0.0,0.0,0.0
0.04031663848460603,0.03986934535333931,0.04146889102642886,0.04421593858925454,0.0472121910867718,0.049598581316554584,0.05122222782189933,0.05191246197828751,0.051731774184278496,0.0509179129620773,0.04966180167200812,0.048522744316032075,0.04765080430969539,0.0470343109557475,0.046553454270190406,0.045937199886285245,0.04528759069940101,0.04448480701895702,0.043453901578678435,0.0421889955783035,0.04064804910658983,0.039132513706591446,0.037685739611049165,0.036298112113737804,0.03493213914200717,0.03346315729439272,0.032052734471164586,0.030651555301807465,0.029204255797096,0.027675282705710822,0.025989875531920156,0.024336600862657227,0.02271709509706359,0.021116003419558035,0.01951887375082079,0.01786964821024093,0.016300124059702322,0.014756247589142402,0.013145237770203865,0.01136246479593076,0.009288165579581698,0.006972528886282314,0.004366986880282754,0.0014651101810250135,-0.0016692192784669186,-0.004883672342327045,-0.007941854025573746,-0.01067475126954092,-0.012953039036308742,-0.014700903352864595,-0.015849185692729015,-0.01646813629043829,-0.016699975187694355,-0.016728035566451506,-0.01673184566323544,-0.016808471333002225,-0.017037478271654746,-0.01745598656556443,-0.018050177808322004,-0.01876278797360629,-0.019487145291003212,0.0,0.0,0.0,0.0,0.0,0.0,0.0,0.0,0.0,0.0,0.0,0.0,0.0,0.0,0.0,0.0,0.0,0.0,0.0,0.0,0.0,0.0,0.0,0.0,0.0,0.0,0.0,0.0,0.0,0.0,0.0,0.0,0.0,0.0,0.0,0.0,0.0,0.0,0.0,0.0,0.0,0.0,0.0,0.0,0.0,0.0,0.0,0.0,0.0,0.0,0.0,0.0,0.0,0.0,0.0,0.0,0.0,0.0,0.0,0.0,0.0,0.0,0.0,0.0,0.0,0.0,0.0,0.0,0.0,0.0,0.0,0.0,0.0,0.0,0.0,0.0,0.0,0.0,0.0,0.0,0.0,0.0,0.0,0.0,0.0,0.0,0.0,0.0,0.0,0.0,0.0,0.0,0.0,0.0,0.0,0.0,0.0,0.0,0.0,0.0,0.0,0.0,0.0,0.0,0.0,0.0,0.0,0.0,0.0,0.0,0.0,0.0,0.0,0.0,0.0,0.0,0.0,0.0,0.0,0.0,0.0,0.0,0.0,0.0,0.0,0.0,0.0,0.0,0.0,0.0,0.0,0.0,0.0,0.0,0.0,0.0,0.0,0.0,0.0,0.0,0.0,0.0,0.0,0.0,0.0,0.0,0.0,0.0,0.0,0.0,0.0,0.0,0.0,0.0,0.0,0.0,0.0,0.0,0.0,0.0,0.0,0.0,0.0,0.0,0.0,0.0,0.0,0.0,0.0,0.0,0.0,0.0,0.0,0.0,0.0,0.0,0.0,0.0,0.0,0.0,0.0,0.0,0.0,0.0,0.0,0.0,0.0,0.0,0.0,0.0,0.0,0.0,0.0,0.0,0.0,0.0,0.0,0.0,0.0,0.0,0.0,0.0,0.0,0.0,0.0,0.0,0.0,0.0,0.0,0.0,0.0,0.0,0.0,0.0,0.0,0.0,0.0,0.0,0.0,0.0,0.0,0.0,0.0,0.0,0.0,0.0,0.0,0.0,0.0,0.0,0.0,0.0,0.0,0.0,0.0,0.0,0.0,0.0,0.0,0.0806859685089345,0.07745797113855686,0.07443869996057449,0.07148093904765346,0.0684546719095693,0.06516720549729565,0.06191890006256754,0.058740067733201694,0.055656551152399585,0.052692180495311415,0.04975355916966763,0.047076901638133696,0.04457842683640559,0.04212965179104012,0.03961785004815471,0.03690062376871717,0.034207945507409875,0.03156708740295287,0.029003970764957743,0.026543519600998013,0.02413148634633045,0.021943107138327027,0.019905065042617427,0.017906387176412266,0.015850271937291847,0.013636860290210438,0.011436024811583748,0.009272123644232662,0.00717067690246879,0.00515702427358568,0.003208923194750782,0.0014499399808864924,-0.00018363884144441221,-0.0017868829852835696,-0.0034421753048947635,-0.005213786069350954,-0.006982559139507973,-0.008726733035271843,-0.01042142709939682,-0.012041374883375207,-0.013583143902345067,-0.014966606722838248,-0.016246846253979787,-0.01750468786036795,-0.018809596845454912,-0.020196446554584822,-0.021588282606849755,-0.022965445667614454,-0.024303635633023495,-0.025577818807534618,-0.026764280540084305,-0.02781887443852934,-0.028789016506151264,-0.029743024533734286,-0.03073914669789186,-0.031788691694819855,-0.03284975622012183,-0.03390463950893736,-0.03492974928057233,-0.03590047458824911,-0.03677741886777101,0.0,0.0,0.0,0.0,0.0,0.0,0.0,0.0,0.0,0.0,0.0,0.0,0.0,0.0,0.0,0.0,0.0,0.0,0.0,0.0,0.0,0.0,0.0,0.0,0.0,0.0,0.0,0.0,0.0,0.0,0.0,0.0,0.0,0.0,0.0,0.0,0.0,0.0,0.0,0.0,0.0,0.0,0.0,0.0,0.0,0.0,0.0,0.0,0.0,0.0,0.0,0.0,0.0,0.0,0.0,0.0,0.0,0.0,0.0,0.0,0.0,0.0,0.0,0.0,0.0,0.0,0.0,0.0,0.0,0.0,0.0,0.0,0.0,0.0,0.0,0.0,0.0,0.0,0.0,0.0,0.0,0.0,0.0,0.0,0.0,0.0,0.0,0.0,0.0,0.0,0.0,0.0,0.0,0.0,0.0,0.0,0.0,0.0,0.0,0.0,0.0,0.0,0.0,0.0,0.0,0.0,0.0,0.0,0.0,0.0,0.0,0.0,0.0,0.0,0.0,0.0,0.0,0.0,0.0,0.0,0.0,0.0,0.0,0.0,0.0,0.0,0.0,0.0,0.0,0.0,0.0,0.0,0.0,0.0,0.0,0.0,0.0,0.0,0.0,0.0,0.0,0.0,0.0,0.0,0.0,0.0,0.0,0.0,0.0,0.0,0.0,0.0,0.0,0.0,0.0,0.0,0.0,0.0,0.0,0.0,0.0,0.0,0.0,0.0,0.0,0.0,0.0,0.0,0.0,0.0,0.0,0.0,0.0,0.0,0.0,0.0,0.0,0.0,0.0,0.0,0.0,0.0,0.0,0.0,0.0,0.0,0.0,0.0,0.0,0.0,0.0,0.0,0.0,0.0,0.0,0.0,0.0,0.0,0.0,0.0,0.0,0.0,0.0,0.0,0.0,0.0,0.0,0.0,0.0,0.0,0.0,0.0,0.0,0.0,0.0,0.0,0.0,0.0,0.0,0.0,0.0,0.0,0.0,0.0,0.0,0.0,0.0,0.0,0.0,0.0,0.0,0.0,0.0,0.0,0.0,0.0,0.0,0.0,0.0
0.034698665165906306,0.03582489198655344,0.037051972038526865,0.03794143210796592,0.038505895216703216,0.03871449016864881,0.03860496763771927,0.03823375293596594,0.0374795702747019,0.0365253902639866,0.03536362999469062,0.03398358391852919,0.03241102012366966,0.030582490844405116,0.028852438355354202,0.027463536255499837,0.026651957840161965,0.02658828731137337,0.027173326404032798,0.028520764956498863,0.03046664154867021,0.03276847336978974,0.035166144199677965,0.03728276003958314,0.03917509513451281,0.040835786024363635,0.0423279868703739,0.04374400108798257,0.0449994040106534,0.046317662860813145,0.04770839518126607,0.04913542013116453,0.0505447639454576,0.0517397752400331,0.05291114357765745,0.05415082298157624,0.05558591815574761,0.05734552680293264,0.059366972945224014,0.06185582188517097,0.06479332866581593,0.0680793674572409,0.07155017392417005,0.07487006530862161,0.07800920409525126,0.08087389457413535,0.08344114767816209,0.08575482104540745,0.08777912210800572,0.08975276019873465,0.09181903867646284,0.09407707259599614,0.09654675200919961,0.09902741843684827,0.10149478686135331,0.10379685948285416,0.10578357854952725,0.10733868297299176,0.10827636844755303,0.10873840103061756,0.10884781522465203,0.0,0.0,0.0,0.0,0.0,0.0,0.0,0.0,0.0,0.0,0.0,0.0,0.0,0.0,0.0,0.0,0.0,0.0,0.0,0.0,0.0,0.0,0.0,0.0,0.0,0.0,0.0,0.0,0.0,0.0,0.0,0.0,0.0,0.0,0.0,0.0,0.0,0.0,0.0,0.0,0.0,0.0,0.0,0.0,0.0,0.0,0.0,0.0,0.0,0.0,0.0,0.0,0.0,0.0,0.0,0.0,0.0,0.0,0.0,0.0,0.0,0.0,0.0,0.0,0.0,0.0,0.0,0.0,0.0,0.0,0.0,0.0,0.0,0.0,0.0,0.0,0.0,0.0,0.0,0.0,0.0,0.0,0.0,0.0,0.0,0.0,0.0,0.0,0.0,0.0,0.0,0.0,0.0,0.0,0.0,0.0,0.0,0.0,0.0,0.0,0.0,0.0,0.0,0.0,0.0,0.0,0.0,0.0,0.0,0.0,0.0,0.0,0.0,0.0,0.0,0.0,0.0,0.0,0.0,0.0,0.0,0.0,0.0,0.0,0.0,0.0,0.0,0.0,0.0,0.0,0.0,0.0,0.0,0.0,0.0,0.0,0.0,0.0,0.0,0.0,0.0,0.0,0.0,0.0,0.0,0.0,0.0,0.0,0.0,0.0,0.0,0.0,0.0,0.0,0.0,0.0,0.0,0.0,0.0,0.0,0.0,0.0,0.0,0.0,0.0,0.0,0.0,0.0,0.0,0.0,0.0,0.0,0.0,0.0,0.0,0.0,0.0,0.0,0.0,0.0,0.0,0.0,0.0,0.0,0.0,0.0,0.0,0.0,0.0,0.0,0.0,0.0,0.0,0.0,0.0,0.0,0.0,0.0,0.0,0.0,0.0,0.0,0.0,0.0,0.0,0.0,0.0,0.0,0.0,0.0,0.0,0.0,0.0,0.0,0.0,0.0,0.0,0.0,0.0,0.0,0.0,0.0,0.0,0.0,0.0,0.0,0.0,0.0,0.0,0.0,0.0,0.0,0.0,0.0,0.0,0.0,0.0,0.0,0.0,0.032221215066515624,0.032087073259494926,0.03195899529272549,0.0317892992658276,0.031631294308568314,0.031485815646044905,0.03135083729411145,0.031222796214931337,0.031055408875005634,0.030900552971696443,0.03075832218807373,0.030625854634349532,0.030498991776901303,0.03033234384987912,0.030177022313719035,0.030033900325571707,0.029901082873165057,0.02977518733887127,0.029612100681179247,0.029461379600198036,0.029322984137675666,0.029194011282618202,0.02907033995574866,0.02890863887232959,0.028757701445617775,0.02861831867475348,0.028488655987844877,0.028365492572626053,0.028206868761205865,0.0280601353786095,0.027925221559246677,0.02779929142559608,0.027678355666114755,0.027521156985142643,0.027374257738405544,0.027238378465607935,0.027111729802943827,0.026991218759603464,0.026836941615414618,0.026694065885700863,0.0265624747761452,0.0264393985723143,0.026320990474707325,0.02616803488879656,0.02602493800314337,0.025892379615902253,0.02576863853219406,0.02565076218981119,0.025500859507800542,0.025361955256016724,0.025233883791625954,0.025113932235909447,0.02499837792309709,0.024849965319237464,0.024710961266910993,0.024581962242513744,0.024461262872992114,0.02434599365638299,0.024200163682156207,0.02406468636563647,0.023939346545070943,0.0,0.0,0.0,0.0,0.0,0.0,0.0,0.0,0.0,0.0,0.0,0.0,0.0,0.0,0.0,0.0,0.0,0.0,0.0,0.0,0.0,0.0,0.0,0.0,0.0,0.0,0.0,0.0,0.0,0.0,0.0,0.0,0.0,0.0,0.0,0.0,0.0,0.0,0.0,0.0,0.0,0.0,0.0,0.0,0.0,0.0,0.0,0.0,0.0,0.0,0.0,0.0,0.0,0.0,0.0,0.0,0.0,0.0,0.0,0.0,0.0,0.0,0.0,0.0,0.0,0.0,0.0,0.0,0.0,0.0,0.0,0.0,0.0,0.0,0.0,0.0,0.0,0.0,0.0,0.0,0.0,0.0,0.0,0.0,0.0,0.0,0.0,0.0,0.0,0.0,0.0,0.0,0.0,0.0,0.0,0.0,0.0,0.0,0.0,0.0,0.0,0.0,0.0,0.0,0.0,0.0,0.0,0.0,0.0,0.0,0.0,0.0,0.0,0.0,0.0,0.0,0.0,0.0,0.0,0.0,0.0,0.0,0.0,0.0,0.0,0.0,0.0,0.0,0.0,0.0,0.0,0.0,0.0,0.0,0.0,0.0,0.0,0.0,0.0,0.0,0.0,0.0,0.0,0.0,0.0,0.0,0.0,0.0,0.0,0.0,0.0,0.0,0.0,0.0,0.0,0.0,0.0,0.0,0.0,0.0,0.0,0.0,0.0,0.0,0.0,0.0,0.0,0.0,0.0,0.0,0.0,0.0,0.0,0.0,0.0,0.0,0.0,0.0,0.0,0.0,0.0,0.0,0.0,0.0,0.0,0.0,0.0,0.0,0.0,0.0,0.0,0.0,0.0,0.0,0.0,0.0,0.0,0.0,0.0,0.0,0.0,0.0,0.0,0.0,0.0,0.0,0.0,0.0,0.0,0.0,0.0,0.0,0.0,0.0,0.0,0.0,0.0,0.0,0.0,0.0,0.0,0.0,0.0,0.0,0.0,0.0,0.0,0.0,0.0,0.0,0.0,0.0,0.0,0.0,0.0,0.0,0.0,0.0,0.0
0.059313358953274116,0.06523081186290262,0.07164568999077428,0.07771046257480901,0.08300274720584229,0.08716286426181824,0.09003807277779104,0.09166209463996362,0.09207236637801397,0.09168981812583432,0.09081820486542239,0.08973206208696405,0.08864514355896541,0.08759690098501106,0.08678732051422383,0.08622196000043583,0.08585678639702352,0.08562819247796721,0.08541508106698975,0.08528136695133626,0.08518569487488512,0.08509112008780897,0.08497424925513071,0.0848191498363017,0.08469836777066997,0.08458897391442734,0.0844648725933212,0.08432030603229422,0.0842222571957865,0.08423742725092409,0.08434230172087612,0.08447673461398149,0.08456933886025977,0.0845424321157555,0.08448203396098215,0.08442942249931704,0.08448713845361187,0.08481837168822531,0.08551923031349198,0.08690650431501054,0.0890646512252205,0.09192698719927608,0.09526271697477476,0.09862208843677504,0.10168392671032492,0.1040439233624388,0.10541508084928025,0.1057070622613242,0.10498908958709581,0.10367461155056397,0.10220536615727906,0.10099157916827314,0.1002800662137153,0.09994921121855066,0.09982386241639916,0.09937438366610161,0.09793361467442942,0.09485307016610639,0.0895184697866943,0.081959363519782,0.0724454560328158,0.0,0.0,0.0,0.0,0.0,0.0,0.0,0.0,0.0,0.0,0.0,0.0,0.0,0.0,0.0,0.0,0.0,0.0,0.0,0.0,0.0,0.0,0.0,0.0,0.0,0.0,0.0,0.0,0.0,0.0,0.0,0.0,0.0,0.0,0.0,0.0,0.0,0.0,0.0,0.0,0.0,0.0,0.0,0.0,0.0,0.0,0.0,0.0,0.0,0.0,0.0,0.0,0.0,0.0,0.0,0.0,0.0,0.0,0.0,0.0,0.0,0.0,0.0,0.0,0.0,0.0,0.0,0.0,0.0,0.0,0.0,0.0,0.0,0.0,0.0,0.0,0.0,0.0,0.0,0.0,0.0,0.0,0.0,0.0,0.0,0.0,0.0,0.0,0.0,0.0,0.0,0.0,0.0,0.0,0.0,0.0,0.0,0.0,0.0,0.0,0.0,0.0,0.0,0.0,0.0,0.0,0.0,0.0,0.0,0.0,0.0,0.0,0.0,0.0,0.0,0.0,0.0,0.0,0.0,0.0,0.0,0.0,0.0,0.0,0.0,0.0,0.0,0.0,0.0,0.0,0.0,0.0,0.0,0.0,0.0,0.0,0.0,0.0,0.0,0.0,0.0,0.0,0.0,0.0,0.0,0.0,0.0,0.0,0.0,0.0,0.0,0.0,0.0,0.0,0.0,0.0,0.0,0.0,0.0,0.0,0.0,0.0,0.0,0.0,0.0,0.0,0.0,0.0,0.0,0.0,0.0,0.0,0.0,0.0,0.0,0.0,0.0,0.0,0.0,0.0,0.0,0.0,0.0,0.0,0.0,0.0,0.0,0.0,0.0,0.0,0.0,0.0,0.0,0.0,0.0,0.0,0.0,0.0,0.0,0.0,0.0,0.0,0.0,0.0,0.0,0.0,0.0,0.0,0.0,0.0,0.0,0.0,0.0,0.0,0.0,0.0,0.0,0.0,0.0,0.0,0.0,0.0,0.0,0.0,0.0,0.0,0.0,0.0,0.0,0.0,0.0,0.0,0.0,0.0,0.0,0.0,0.0,0.0,0.0,0.012157760613702459,0.012077615225087119,0.011998966656910179,0.011903912553199919,0.011813698917558178,0.011728643543282024,0.011647897303380223,0.011570102872289335,0.011478364388209332,0.011392895303906131,0.011313103007080902,0.011237023083632211,0.01116237952524809,0.011072440204093629,0.0109869733744428,0.010906181570913004,0.010829184554994242,0.010754656178206845,0.010666879602644341,0.010584723115641013,0.010507635258354152,0.010433802125894925,0.010361155502114716,0.010274263297272131,0.010191663499189806,0.010113619708079724,0.010039355632397363,0.00996765482602259,0.009883951184139398,0.009805776549960957,0.009732518234567944,0.009662366435245855,0.009593291819330985,0.009510945043675027,0.009432545275542875,0.009358305906882221,0.009287480679016866,0.009218928812639379,0.009139185177204395,0.00906454685330077,0.008994411845130978,0.008927061864649961,0.00886060118067585,0.00878180589803568,0.008706726807451338,0.008635610672482492,0.00856780312893662,0.008502273548712323,0.008426611076385985,0.008355910107117441,0.008289530686730499,0.008225772660086974,0.008162785775343556,0.008088337837360675,0.008017289115922414,0.007949872351994245,0.00788550906283772,0.007823298001974788,0.0077518954790632595,0.007685313008336732,0.007622943761699543,0.0,0.0,0.0,0.0,0.0,0.0,0.0,0.0,0.0,0.0,0.0,0.0,0.0,0.0,0.0,0.0,0.0,0.0,0.0,0.0,0.0,0.0,0.0,0.0,0.0,0.0,0.0,0.0,0.0,0.0,0.0,0.0,0.0,0.0,0.0,0.0,0.0,0.0,0.0,0.0,0.0,0.0,0.0,0.0,0.0,0.0,0.0,0.0,0.0,0.0,0.0,0.0,0.0,0.0,0.0,0.0,0.0,0.0,0.0,0.0,0.0,0.0,0.0,0.0,0.0,0.0,0.0,0.0,0.0,0.0,0.0,0.0,0.0,0.0,0.0,0.0,0.0,0.0,0.0,0.0,0.0,0.0,0.0,0.0,0.0,0.0,0.0,0.0,0.0,0.0,0.0,0.0,0.0,0.0,0.0,0.0,0.0,0.0,0.0,0.0,0.0,0.0,0.0,0.0,0.0,0.0,0.0,0.0,0.0,0.0,0.0,0.0,0.0,0.0,0.0,0.0,0.0,0.0,0.0,0.0,0.0,0.0,0.0,0.0,0.0,0.0,0.0,0.0,0.0,0.0,0.0,0.0,0.0,0.0,0.0,0.0,0.0,0.0,0.0,0.0,0.0,0.0,0.0,0.0,0.0,0.0,0.0,0.0,0.0,0.0,0.0,0.0,0.0,0.0,0.0,0.0,0.0,0.0,0.0,0.0,0.0,0.0,0.0,0.0,0.0,0.0,0.0,0.0,0.0,0.0,0.0,0.0,0.0,0.0,0.0,0.0,0.0,0.0,0.0,0.0,0.0,0.0,0.0,0.0,0.0,0.0,0.0,0.0,0.0,0.0,0.0,0.0,0.0,0.0,0.0,0.0,0.0,0.0,0.0,0.0,0.0,0.0,0.0,0.0,0.0,0.0,0.0,0.0,0.0,0.0,0.0,0.0,0.0,0.0,0.0,0.0,0.0,0.0,0.0,0.0,0.0,0.0,0.0,0.0,0.0,0.0,0.0,0.0,0.0,0.0,0.0,0.0,0.0,0.0,0.0,0.0,0.0,0.0,0.0
0.005625953317970959,-0.0020251391301216062,-0.011188896140814718,-0.022660739632052278,-0.03671322151952288,-0.052912234384331375,-0.07023854746903947,-0.08675862985908513,-0.10038065324611968,-0.10911069369900282,-0.1114504220866337,-0.1068308884287395,-0.09536425707575628,-0.078201156641381,-0.05719274731332522,-0.03455321350389422,-0.012594241197183612,0.006981515803057066,0.0229362637630739,0.034703864805405264,0.04234399507884526,0.04629050065251406,0.04749154614356752,0.04686312972159973,0.0452526090069793,0.04335923012537432,0.041580759564358354,0.040487837074285375,0.04041962989838376,0.04164763394938039,0.044374465171903375,0.04853240194249351,0.05429551084128948,0.06150406404508861,0.06981286001498194,0.07871383918209203,0.08742253971140515,0.09554313772711727,0.10263529192494435,0.108465723621264,0.11305321319228069,0.1164721433135447,0.11935960045030707,0.12224830156022186,0.12558029190373937,0.1295686346106594,0.13394000581781382,0.13843680078373177,0.1424383226639108,0.14521411797315067,0.14608405602903812,0.14442480691919632,0.14024013933023682,0.13385684938491152,0.1259558711119106,0.1174263778516424,0.109050055311438,0.10165404243636197,0.09576188572777267,0.09153735507201635,0.08876869967424668,0.0,0.0,0.0,0.0,0.0,0.0,0.0,0.0,0.0,0.0,0.0,0.0,0.0,0.0,0.0,0.0,0.0,0.0,0.0,0.0,0.0,0.0,0.0,0.0,0.0,0.0,0.0,0.0,0.0,0.0,0.0,0.0,0.0,0.0,0.0,0.0,0.0,0.0,0.0,0.0,0.0,0.0,0.0,0.0,0.0,0.0,0.0,0.0,0.0,0.0,0.0,0.0,0.0,0.0,0.0,0.0,0.0,0.0,0.0,0.0,0.0,0.0,0.0,0.0,0.0,0.0,0.0,0.0,0.0,0.0,0.0,0.0,0.0,0.0,0.0,0.0,0.0,0.0,0.0,0.0,0.0,0.0,0.0,0.0,0.0,0.0,0.0,0.0,0.0,0.0,0.0,0.0,0.0,0.0,0.0,0.0,0.0,0.0,0.0,0.0,0.0,0.0,0.0,0.0,0.0,0.0,0.0,0.0,0.0,0.0,0.0,0.0,0.0,0.0,0.0,0.0,0.0,0.0,0.0,0.0,0.0,0.0,0.0,0.0,0.0,0.0,0.0,0.0,0.0,0.0,0.0,0.0,0.0,0.0,0.0,0.0,0.0,0.0,0.0,0.0,0.0,0.0,0.0,0.0,0.0,0.0,0.0,0.0,0.0,0.0,0.0,0.0,0.0,0.0,0.0,0.0,0.0,0.0,0.0,0.0,0.0,0.0,0.0,0.0,0.0,0.0,0.0,0.0,0.0,0.0,0.0,0.0,0.0,0.0,0.0,0.0,0.0,0.0,0.0,0.0,0.0,0.0,0.0,0.0,0.0,0.0,0.0,0.0,0.0,0.0,0.0,0.0,0.0,0.0,0.0,0.0,0.0,0.0,0.0,0.0,0.0,0.0,0.0,0.0,0.0,0.0,0.0,0.0,0.0,0.0,0.0,0.0,0.0,0.0,0.0,0.0,0.0,0.0,0.0,0.0,0.0,0.0,0.0,0.0,0.0,0.0,0.0,0.0,0.0,0.0,0.0,0.0,0.0,0.0,0.0,0.0,0.0,0.0,0.0,0.007184990443635365,0.007117040988759706,0.007053200215206381,0.006992919392351426,0.006934733414046522,0.006877074676880181,0.006809689634159878,0.006745316411159061,0.0066841641082847555,0.006625714316698248,0.0065691589101249965,0.006504921230412866,0.006444860791117914,0.006388345687981577,0.006333874320390789,0.006279867596528686,0.0062168675829378725,0.0061565468885797486,0.006099076564344294,0.0060439879402221525,0.005990576282932376,0.005930171155239487,0.005873709315742618,0.005820610560780032,0.005769463151169985,0.005718771429323818,0.005659880565627703,0.005603440205099155,0.005549524326006944,0.0054976096895405484,0.005446966575715258,0.005389659031856048,0.005335662317076787,0.005284418035269682,0.005234645425962304,0.005185049749590044,0.005127917818136634,0.005073171534097321,0.005021052312761895,0.004971227964288304,0.00492313292346483,0.004869616121922096,0.004819744271969603,0.00477286467518397,0.0047276050976870964,0.004682570645064134,0.004630605348904098,0.004580630044320483,0.004532780734740321,0.004486731526207415,0.004442008366663437,0.004392249614525743,0.004345812934879426,0.004302165933814594,0.004260079678963918,0.004218270100422543,0.004170250899268442,0.004124051013123236,0.004079672592803767,0.004036682835264335,0.003994531834181647,0.0,0.0,0.0,0.0,0.0,0.0,0.0,0.0,0.0,0.0,0.0,0.0,0.0,0.0,0.0,0.0,0.0,0.0,0.0,0.0,0.0,0.0,0.0,0.0,0.0,0.0,0.0,0.0,0.0,0.0,0.0,0.0,0.0,0.0,0.0,0.0,0.0,0.0,0.0,0.0,0.0,0.0,0.0,0.0,0.0,0.0,0.0,0.0,0.0,0.0,0.0,0.0,0.0,0.0,0.0,0.0,0.0,0.0,0.0,0.0,0.0,0.0,0.0,0.0,0.0,0.0,0.0,0.0,0.0,0.0,0.0,0.0,0.0,0.0,0.0,0.0,0.0,0.0,0.0,0.0,0.0,0.0,0.0,0.0,0.0,0.0,0.0,0.0,0.0,0.0,0.0,0.0,0.0,0.0,0.0,0.0,0.0,0.0,0.0,0.0,0.0,0.0,0.0,0.0,0.0,0.0,0.0,0.0,0.0,0.0,0.0,0.0,0.0,0.0,0.0,0.0,0.0,0.0,0.0,0.0,0.0,0.0,0.0,0.0,0.0,0.0,0.0,0.0,0.0,0.0,0.0,0.0,0.0,0.0,0.0,0.0,0.0,0.0,0.0,0.0,0.0,0.0,0.0,0.0,0.0,0.0,0.0,0.0,0.0,0.0,0.0,0.0,0.0,0.0,0.0,0.0,0.0,0.0,0.0,0.0,0.0,0.0,0.0,0.0,0.0,0.0,0.0,0.0,0.0,0.0,0.0,0.0,0.0,0.0,0.0,0.0,0.0,0.0,0.0,0.0,0.0,0.0,0.0,0.0,0.0,0.0,0.0,0.0,0.0,0.0,0.0,0.0,0.0,0.0,0.0,0.0,0.0,0.0,0.0,0.0,0.0,0.0,0.0,0.0,0.0,0.0,0.0,0.0,0.0,0.0,0.0,0.0,0.0,0.0,0.0,0.0,0.0,0.0,0.0,0.0,0.0,0.0,0.0,0.0,0.0,0.0,0.0,0.0,0.0,0.0,0.0,0.0,0.0,0.0,0.0,0.0,0.0,0.0,0.0
0.012140210250118499,-0.0172689274492593,-0.04185283391796276,-0.060206297738715386,-0.07199617337678037,-0.07818325379484184,-0.08011822076335146,-0.07978655696566571,-0.07910699461999576,-0.07946527407016303,-0.08161826383564645,-0.08488573014310712,-0.08799976478709257,-0.08924745208314945,-0.0869343747635457,-0.0800691433538395,-0.06793624767538539,-0.0509598732545247,-0.030392227779623266,-0.008049140276378583,0.013843531648191494,0.03370597738937108,0.05019957945461681,0.06260461573792972,0.07083609421078853,0.07514887669596955,0.07657399497643519,0.07606052863761137,0.07451795857520481,0.07271224568373098,0.07102489244280859,0.07012480567308353,0.07031033985132303,0.07176606613437578,0.07458839715667342,0.0785746258486103,0.08391569229557744,0.09045040362477556,0.09788626838070077,0.10581541381441614,0.1135335264748036,0.12082917566697356,0.12732115697612514,0.13275411430821285,0.13704243047215883,0.14004663470893547,0.14228456001666212,0.14411678781039267,0.1458867264520847,0.14783693074053322,0.14990157663737963,0.15216180293581383,0.15448108770323252,0.15668416103391455,0.15863143100890767,0.1602048453050924,0.16151428772391685,0.16280497807542352,0.16435717688945073,0.1663559449373416,0.16869658706717638,0.0,0.0,0.0,0.0,0.0,0.0,0.0,0.0,0.0,0.0,0.0,0.0,0.0,0.0,0.0,0.0,0.0,0.0,0.0,0.0,0.0,0.0,0.0,0.0,0.0,0.0,0.0,0.0,0.0,0.0,0.0,0.0,0.0,0.0,0.0,0.0,0.0,0.0,0.0,0.0,0.0,0.0,0.0,0.0,0.0,0.0,0.0,0.0,0.0,0.0,0.0,0.0,0.0,0.0,0.0,0.0,0.0,0.0,0.0,0.0,0.0,0.0,0.0,0.0,0.0,0.0,0.0,0.0,0.0,0.0,0.0,0.0,0.0,0.0,0.0,0.0,0.0,0.0,0.0,0.0,0.0,0.0,0.0,0.0,0.0,0.0,0.0,0.0,0.0,0.0,0.0,0.0,0.0,0.0,0.0,0.0,0.0,0.0,0.0,0.0,0.0,0.0,0.0,0.0,0.0,0.0,0.0,0.0,0.0,0.0,0.0,0.0,0.0,0.0,0.0,0.0,0.0,0.0,0.0,0.0,0.0,0.0,0.0,0.0,0.0,0.0,0.0,0.0,0.0,0.0,0.0,0.0,0.0,0.0,0.0,0.0,0.0,0.0,0.0,0.0,0.0,0.0,0.0,0.0,0.0,0.0,0.0,0.0,0.0,0.0,0.0,0.0,0.0,0.0,0.0,0.0,0.0,0.0,0.0,0.0,0.0,0.0,0.0,0.0,0.0,0.0,0.0,0.0,0.0,0.0,0.0,0.0,0.0,0.0,0.0,0.0,0.0,0.0,0.0,0.0,0.0,0.0,0.0,0.0,0.0,0.0,0.0,0.0,0.0,0.0,0.0,0.0,0.0,0.0,0.0,0.0,0.0,0.0,0.0,0.0,0.0,0.0,0.0,0.0,0.0,0.0,0.0,0.0,0.0,0.0,0.0,0.0,0.0,0.0,0.0,0.0,0.0,0.0,0.0,0.0,0.0,0.0,0.0,0.0,0.0,0.0,0.0,0.0,0.0,0.0,0.0,0.0,0.0,0.0,0.0,0.0,0.0,0.0,0.0,0.0016563922561856831,0.0016279154466152732,0.0016003765416465162,0.0015736375217836349,0.0015475062968132508,0.0015197390500868721,0.0014936051743598975,0.0014686666291885112,0.0014441724345698953,0.0014194487272016112,0.0013922487590228162,0.0013658382885725119,0.0013403083644362582,0.0013155516167537094,0.0012913911575899717,0.0012658880087575751,0.0012418182517425502,0.001218705624517373,0.0011958124652252126,0.001172521312567814,0.0011469882437030513,0.0011221569597769892,0.00109827186198442,0.001075427806278666,0.0010536514675456561,0.001031466608481251,0.0010112948236717359,0.0009926438105004585,0.0009746900121766301,0.0009566446874586613,0.000936704565328206,0.0009171009858416595,0.0008977888840317849,0.0008786595160188669,0.0008596379073716665,0.0008395302265889077,0.0008204680463566056,0.0008021592310811429,0.0007840672898835159,0.0007657130395210888,0.0007458304060195075,0.0007264710052361866,0.0007077105728913055,0.0006895068024025766,0.000671788171670511,0.0006535562740852234,0.0006364881878911176,0.00062019862657978,0.0006040982947371489,0.0005876859473174277,0.0005699338128886142,0.0005525594789621853,0.000535680727922244,0.0005193436069481032,0.0005035837229643445,0.00048773248127651473,0.00047320351581614837,0.00045965025377907824,0.0004464976493235283,0.00043320719022667124,0.00041887184735971855,0.0,0.0,0.0,0.0,0.0,0.0,0.0,0.0,0.0,0.0,0.0,0.0,0.0,0.0,0.0,0.0,0.0,0.0,0.0,0.0,0.0,0.0,0.0,0.0,0.0,0.0,0.0,0.0,0.0,0.0,0.0,0.0,0.0,0.0,0.0,0.0,0.0,0.0,0.0,0.0,0.0,0.0,0.0,0.0,0.0,0.0,0.0,0.0,0.0,0.0,0.0,0.0,0.0,0.0,0.0,0.0,0.0,0.0,0.0,0.0,0.0,0.0,0.0,0.0,0.0,0.0,0.0,0.0,0.0,0.0,0.0,0.0,0.0,0.0,0.0,0.0,0.0,0.0,0.0,0.0,0.0,0.0,0.0,0.0,0.0,0.0,0.0,0.0,0.0,0.0,0.0,0.0,0.0,0.0,0.0,0.0,0.0,0.0,0.0,0.0,0.0,0.0,0.0,0.0,0.0,0.0,0.0,0.0,0.0,0.0,0.0,0.0,0.0,0.0,0.0,0.0,0.0,0.0,0.0,0.0,0.0,0.0,0.0,0.0,0.0,0.0,0.0,0.0,0.0,0.0,0.0,0.0,0.0,0.0,0.0,0.0,0.0,0.0,0.0,0.0,0.0,0.0,0.0,0.0,0.0,0.0,0.0,0.0,0.0,0.0,0.0,0.0,0.0,0.0,0.0,0.0,0.0,0.0,0.0,0.0,0.0,0.0,0.0,0.0,0.0,0.0,0.0,0.0,0.0,0.0,0.0,0.0,0.0,0.0,0.0,0.0,0.0,0.0,0.0,0.0,0.0,0.0,0.0,0.0,0.0,0.0,0.0,0.0,0.0,0.0,0.0,0.0,0.0,0.0,0.0,0.0,0.0,0.0,0.0,0.0,0.0,0.0,0.0,0.0,0.0,0.0,0.0,0.0,0.0,0.0,0.0,0.0,0.0,0.0,0.0,0.0,0.0,0.0,0.0,0.0,0.0,0.0,0.0,0.0,0.0,0.0,0.0,0.0,0.0,0.0,0.0,0.0,0.0,0.0,0.0,0.0,0.0,0.0,0.0
0.07491128955497761,0.0705955078535129,0.06690451163512903,0.06322871550280282,0.05908266330289692,0.05424278337488125,0.048808406386016835,0.04332354789928627,0.03844767233139146,0.03494975561178265,0.03357427719478486,0.03486895346773391,0.03920630532270233,0.046401502912002464,0.05583020548333497,0.06651462140564138,0.07719106933494356,0.0867801595209148,0.0941799411849955,0.09855645909442724,0.09945496561649787,0.09671493194272332,0.09088080000863193,0.08265012825718766,0.07290522071587573,0.06258243932526902,0.052439783239066916,0.043338113165099654,0.03574349733750015,0.029868360019571976,0.0257099130340402,0.023023465318108376,0.021709441608633025,0.021455686215334942,0.02192475522926184,0.022779589640431558,0.023558726828883873,0.02408911862512991,0.023963709482334606,0.022712958622125638,0.019849266246822924,0.01478709814377447,0.00749051947413743,-0.0020126486337222966,-0.01336476778070526,-0.025863509397706076,-0.03867013576182854,-0.05050745612722889,-0.060344272766602654,-0.06745506997107482,-0.07157628504223507,-0.07307807052818023,-0.07253025811982856,-0.07088688411253538,-0.06912395740185566,-0.0679771692641394,-0.06784501585869035,-0.06834872201727675,-0.06869727467266767,-0.06776888729668268,-0.06437805348604371,0.0,0.0,0.0,0.0,0.0,0.0,0.0,0.0,0.0,0.0,0.0,0.0,0.0,0.0,0.0,0.0,0.0,0.0,0.0,0.0,0.0,0.0,0.0,0.0,0.0,0.0,0.0,0.0,0.0,0.0,0.0,0.0,0.0,0.0,0.0,0.0,0.0,0.0,0.0,0.0,0.0,0.0,0.0,0.0,0.0,0.0,0.0,0.0,0.0,0.0,0.0,0.0,0.0,0.0,0.0,0.0,0.0,0.0,0.0,0.0,0.0,0.0,0.0,0.0,0.0,0.0,0.0,0.0,0.0,0.0,0.0,0.0,0.0,0.0,0.0,0.0,0.0,0.0,0.0,0.0,0.0,0.0,0.0,0.0,0.0,0.0,0.0,0.0,0.0,0.0,0.0,0.0,0.0,0.0,0.0,0.0,0.0,0.0,0.0,0.0,0.0,0.0,0.0,0.0,0.0,0.0,0.0,0.0,0.0,0.0,0.0,0.0,0.0,0.0,0.0,0.0,0.0,0.0,0.0,0.0,0.0,0.0,0.0,0.0,0.0,0.0,0.0,0.0,0.0,0.0,0.0,0.0,0.0,0.0,0.0,0.0,0.0,0.0,0.0,0.0,0.0,0.0,0.0,0.0,0.0,0.0,0.0,0.0,0.0,0.0,0.0,0.0,0.0,0.0,0.0,0.0,0.0,0.0,0.0,0.0,0.0,0.0,0.0,0.0,0.0,0.0,0.0,0.0,0.0,0.0,0.0,0.0,0.0,0.0,0.0,0.0,0.0,0.0,0.0,0.0,0.0,0.0,0.0,0.0,0.0,0.0,0.0,0.0,0.0,0.0,0.0,0.0,0.0,0.0,0.0,0.0,0.0,0.0,0.0,0.0,0.0,0.0,0.0,0.0,0.0,0.0,0.0,0.0,0.0,0.0,0.0,0.0,0.0,0.0,0.0,0.0,0.0,0.0,0.0,0.0,0.0,0.0,0.0,0.0,0.0,0.0,0.0,0.0,0.0,0.0,0.0,0.0,0.0,0.0,0.0,0.0,0.0,0.0,0.0,-0.00031166084522364016,-0.0003165739885578371,-0.0003210279519310807,-0.00032522627541252066,-0.000329437339539649,-0.0003338738422903321,-0.0003382213565702379,-0.00034267165657889153,-0.00034718566810240463,-0.00035168935571339095,-0.0003560868393570241,-0.0003598769536224175,-0.0003633465610503448,-0.00036667297745529895,-0.0003700798545530301,-0.0003737330772101011,-0.00037722606968623273,-0.0003808248405560527,-0.00038446134390764965,-0.00038802442446124295,-0.0003913793150631782,-0.0003939354552415978,-0.0003960512817266856,-0.0003978828953885637,-0.0003996466447349407,-0.0004015331696163024,-0.00040315184045955734,-0.0004049618200422108,-0.0004070050454320602,-0.000409267734921444,-0.0004116870241694266,-0.0004136612373913638,-0.00041562059290094276,-0.00041764704623672126,-0.00041983472774898695,-0.0004222326584783197,-0.0004242741726264942,-0.0004263935097695244,-0.00042855718769562503,-0.00043070852109715655,-0.00043277829278721286,-0.00043415006653045677,-0.00043537602191819953,-0.00043658811984056815,-0.00043792251433865775,-0.0004394628445359116,-0.0004406392161080119,-0.0004419614053709136,-0.00044338535764098743,-0.0004448197603998578,-0.0004461473962846103,-0.00044668314254701485,-0.00044698477501864625,-0.0004471487847747998,-0.0004472968454036681,-0.00044753344986098225,-0.00044733398668370084,-0.00044734410039881255,-0.0004476202469193529,-0.0004481618721928257,-0.00044891950343735413,0.0,0.0,0.0,0.0,0.0,0.0,0.0,0.0,0.0,0.0,0.0,0.0,0.0,0.0,0.0,0.0,0.0,0.0,0.0,0.0,0.0,0.0,0.0,0.0,0.0,0.0,0.0,0.0,0.0,0.0,0.0,0.0,0.0,0.0,0.0,0.0,0.0,0.0,0.0,0.0,0.0,0.0,0.0,0.0,0.0,0.0,0.0,0.0,0.0,0.0,0.0,0.0,0.0,0.0,0.0,0.0,0.0,0.0,0.0,0.0,0.0,0.0,0.0,0.0,0.0,0.0,0.0,0.0,0.0,0.0,0.0,0.0,0.0,0.0,0.0,0.0,0.0,0.0,0.0,0.0,0.0,0.0,0.0,0.0,0.0,0.0,0.0,0.0,0.0,0.0,0.0,0.0,0.0,0.0,0.0,0.0,0.0,0.0,0.0,0.0,0.0,0.0,0.0,0.0,0.0,0.0,0.0,0.0,0.0,0.0,0.0,0.0,0.0,0.0,0.0,0.0,0.0,0.0,0.0,0.0,0.0,0.0,0.0,0.0,0.0,0.0,0.0,0.0,0.0,0.0,0.0,0.0,0.0,0.0,0.0,0.0,0.0,0.0,0.0,0.0,0.0,0.0,0.0,0.0,0.0,0.0,0.0,0.0,0.0,0.0,0.0,0.0,0.0,0.0,0.0,0.0,0.0,0.0,0.0,0.0,0.0,0.0,0.0,0.0,0.0,0.0,0.0,0.0,0.0,0.0,0.0,0.0,0.0,0.0,0.0,0.0,0.0,0.0,0.0,0.0,0.0,0.0,0.0,0.0,0.0,0.0,0.0,0.0,0.0,0.0,0.0,0.0,0.0,0.0,0.0,0.0,0.0,0.0,0.0,0.0,0.0,0.0,0.0,0.0,0.0,0.0,0.0,0.0,0.0,0.0,0.0,0.0,0.0,0.0,0.0,0.0,0.0,0.0,0.0,0.0,0.0,0.0,0.0,0.0,0.0,0.0,0.0,0.0,0.0,0.0,0.0,0.0,0.0,0.0,0.0,0.0,0.0,0.0,0.0
-0.07307807052818023,-0.07253025811982856,-0.07088688411253538,-0.06912395740185566,-0.0679771692641394,-0.06784501585869035,-0.06834872201727675,-0.06869727467266767,-0.06776888729668268,-0.06437805348604371,-0.05767114956502826,-0.04705322172406667,-0.03261778855527205,-0.015095513718319476,0.004240102333044054,0.023622413082146642,0.041493726957430935,0.05633903968213712,0.06701133613549412,0.07285825815213182,0.07358262839452591,0.06979895705710426,0.06239114463084941,0.052547319754233324,0.041607399797432866,0.030762403529834503,0.02137507269621473,0.01444981523041967,0.010671130059136103,0.010356541442733907,0.013340922572736051,0.019342406031411533,0.02774578934255375,0.037759072665446876,0.04849953401944406,0.0589765566948723,0.06850088159778064,0.07648759416421333,0.08257573704686214,0.08664252659615422,0.0886854161920883,0.0890958077454811,0.08833758964562728,0.08693553122233103,0.0853872604991405,0.08402232968432437,0.0831381834885378,0.08287432539084992,0.0832390044888942,0.08413199440212676,0.0853524149192025,0.08669379489833859,0.08801914156359102,0.08924625499701246,0.09034510354965014,0.09128304633057241,0.09214768879825655,0.09313247099178276,0.09450382755655212,0.0965582126971735,0.09949089805608538,0.0,0.0,0.0,0.0,0.0,0.0,0.0,0.0,0.0,0.0,0.0,0.0,0.0,0.0,0.0,0.0,0.0,0.0,0.0,0.0,0.0,0.0,0.0,0.0,0.0,0.0,0.0,0.0,0.0,0.0,0.0,0.0,0.0,0.0,0.0,0.0,0.0,0.0,0.0,0.0,0.0,0.0,0.0,0.0,0.0,0.0,0.0,0.0,0.0,0.0,0.0,0.0,0.0,0.0,0.0,0.0,0.0,0.0,0.0,0.0,0.0,0.0,0.0,0.0,0.0,0.0,0.0,0.0,0.0,0.0,0.0,0.0,0.0,0.0,0.0,0.0,0.0,0.0,0.0,0.0,0.0,0.0,0.0,0.0,0.0,0.0,0.0,0.0,0.0,0.0,0.0,0.0,0.0,0.0,0.0,0.0,0.0,0.0,0.0,0.0,0.0,0.0,0.0,0.0,0.0,0.0,0.0,0.0,0.0,0.0,0.0,0.0,0.0,0.0,0.0,0.0,0.0,0.0,0.0,0.0,0.0,0.0,0.0,0.0,0.0,0.0,0.0,0.0,0.0,0.0,0.0,0.0,0.0,0.0,0.0,0.0,0.0,0.0,0.0,0.0,0.0,0.0,0.0,0.0,0.0,0.0,0.0,0.0,0.0,0.0,0.0,0.0,0.0,0.0,0.0,0.0,0.0,0.0,0.0,0.0,0.0,0.0,0.0,0.0,0.0,0.0,0.0,0.0,0.0,0.0,0.0,0.0,0.0,0.0,0.0,0.0,0.0,0.0,0.0,0.0,0.0,0.0,0.0,0.0,0.0,0.0,0.0,0.0,0.0,0.0,0.0,0.0,0.0,0.0,0.0,0.0,0.0,0.0,0.0,0.0,0.0,0.0,0.0,0.0,0.0,0.0,0.0,0.0,0.0,0.0,0.0,0.0,0.0,0.0,0.0,0.0,0.0,0.0,0.0,0.0,0.0,0.0,0.0,0.0,0.0,0.0,0.0,0.0,0.0,0.0,0.0,0.0,0.0,0.0,0.0,0.0,0.0,0.0,0.0,-0.00044668314254701485,-0.00044698477501864625,-0.0004471487847747998,-0.0004472968454036681,-0.00044753344986098225,-0.00044733398668370084,-0.00044734410039881255,-0.0004476202469193529,-0.0004481618721928257,-0.00044891950343735413,-0.0004492279313695754,-0.00044967092347308543,-0.00045028276298443196,-0.000451083178075326,-0.0004520564622461371,-0.00045255569540109965,-0.0004531551239241802,-0.000453831297421036,-0.0004545327018386824,-0.00045519342105492015,-0.00045516704955687805,-0.00045509458946877134,-0.00045505006279838956,-0.00045509299093658164,-0.0004552497131021152,-0.0004549257565396846,-0.0004547595275073409,-0.00045477403065139214,-0.0004549630882105668,-0.0004553060051493103,-0.000455205306253776,-0.00045533407151461514,-0.00045575837500596444,-0.0004564929154860427,-0.000457483358865814,-0.00045802863325079227,-0.00045864519526900825,-0.0004592123638926689,-0.000459590940278915,-0.0004596607125823177,-0.0004587760484736189,-0.000457633913457223,-0.00045636533878799535,-0.0004550983302674176,-0.0004539279369373345,-0.0004523228479331212,-0.0004509681428812584,-0.0004498709736327861,-0.0004489753141809647,-0.0004481951612923512,-0.0004468786575171184,-0.0004456739090552966,-0.0004446256194330963,-0.00044375844949635197,-0.00044306216450183574,-0.0004419206279128278,-0.0004409295944917306,-0.00044001799511516417,-0.0004390633376280938,-0.00043792916771132024,-0.0004359524805326885,0.0,0.0,0.0,0.0,0.0,0.0,0.0,0.0,0.0,0.0,0.0,0.0,0.0,0.0,0.0,0.0,0.0,0.0,0.0,0.0,0.0,0.0,0.0,0.0,0.0,0.0,0.0,0.0,0.0,0.0,0.0,0.0,0.0,0.0,0.0,0.0,0.0,0.0,0.0,0.0,0.0,0.0,0.0,0.0,0.0,0.0,0.0,0.0,0.0,0.0,0.0,0.0,0.0,0.0,0.0,0.0,0.0,0.0,0.0,0.0,0.0,0.0,0.0,0.0,0.0,0.0,0.0,0.0,0.0,0.0,0.0,0.0,0.0,0.0,0.0,0.0,0.0,0.0,0.0,0.0,0.0,0.0,0.0,0.0,0.0,0.0,0.0,0.0,0.0,0.0,0.0,0.0,0.0,0.0,0.0,0.0,0.0,0.0,0.0,0.0,0.0,0.0,0.0,0.0,0.0,0.0,0.0,0.0,0.0,0.0,0.0,0.0,0.0,0.0,0.0,0.0,0.0,0.0,0.0,0.0,0.0,0.0,0.0,0.0,0.0,0.0,0.0,0.0,0.0,0.0,0.0,0.0,0.0,0.0,0.0,0.0,0.0,0.0,0.0,0.0,0.0,0.0,0.0,0.0,0.0,0.0,0.0,0.0,0.0,0.0,0.0,0.0,0.0,0.0,0.0,0.0,0.0,0.0,0.0,0.0,0.0,0.0,0.0,0.0,0.0,0.0,0.0,0.0,0.0,0.0,0.0,0.0,0.0,0.0,0.0,0.0,0.0,0.0,0.0,0.0,0.0,0.0,0.0,0.0,0.0,0.0,0.0,0.0,0.0,0.0,0.0,0.0,0.0,0.0,0.0,0.0,0.0,0.0,0.0,0.0,0.0,0.0,0.0,0.0,0.0,0.0,0.0,0.0,0.0,0.0,0.0,0.0,0.0,0.0,0.0,0.0,0.0,0.0,0.0,0.0,0.0,0.0,0.0,0.0,0.0,0.0,0.0,0.0,0.0,0.0,0.0,0.0,0.0,0.0,0.0,0.0,0.0,0.0,0.0
0.12059777890819992,0.12006208211032207,0.11931937457565119,0.11861443247086555,0.11795770967825087,0.11756250487839712,0.11740333332421864,0.11740680888361268,0.11749497522117629,0.11748331865416191,0.11754001752888081,0.11767013482608309,0.11786912513509559,0.11811520554567914,0.11825027758028717,0.11839420256289455,0.11851671209350353,0.11861381388121225,0.118735435870182,0.11888771498189807,0.11937109347548182,0.12034298635367344,0.1218848180724887,0.12394585720439993,0.12618305158010082,0.12836211475327766,0.12996801877603337,0.13041610284041516,0.12915627853861789,0.12564434308123199,0.11988910753940321,0.11204825594744182,0.10257731571448526,0.09218270521401443,0.0816099725659276,0.07190784739103062,0.06390677885532701,0.05822848635228971,0.05520913188941097,0.054769997731240416,0.05675293007013778,0.060653003339470594,0.06580496961176413,0.07148098277895894,0.07688471076640002,0.08155788570379272,0.08507084485890322,0.08716426666281661,0.0877528336685069,0.08680924420573997,0.08467770674334818,0.08164330659287869,0.07803140237291793,0.07418172425338516,0.0703217931848268,0.06688140297431446,0.06406941837252446,0.061984474082432406,0.06061061483826344,0.05972754687843627,0.059281414598105084,0.0,0.0,0.0,0.0,0.0,0.0,0.0,0.0,0.0,0.0,0.0,0.0,0.0,0.0,0.0,0.0,0.0,0.0,0.0,0.0,0.0,0.0,0.0,0.0,0.0,0.0,0.0,0.0,0.0,0.0,0.0,0.0,0.0,0.0,0.0,0.0,0.0,0.0,0.0,0.0,0.0,0.0,0.0,0.0,0.0,0.0,0.0,0.0,0.0,0.0,0.0,0.0,0.0,0.0,0.0,0.0,0.0,0.0,0.0,0.0,0.0,0.0,0.0,0.0,0.0,0.0,0.0,0.0,0.0,0.0,0.0,0.0,0.0,0.0,0.0,0.0,0.0,0.0,0.0,0.0,0.0,0.0,0.0,0.0,0.0,0.0,0.0,0.0,0.0,0.0,0.0,0.0,0.0,0.0,0.0,0.0,0.0,0.0,0.0,0.0,0.0,0.0,0.0,0.0,0.0,0.0,0.0,0.0,0.0,0.0,0.0,0.0,0.0,0.0,0.0,0.0,0.0,0.0,0.0,0.0,0.0,0.0,0.0,0.0,0.0,0.0,0.0,0.0,0.0,0.0,0.0,0.0,0.0,0.0,0.0,0.0,0.0,0.0,0.0,0.0,0.0,0.0,0.0,0.0,0.0,0.0,0.0,0.0,0.0,0.0,0.0,0.0,0.0,0.0,0.0,0.0,0.0,0.0,0.0,0.0,0.0,0.0,0.0,0.0,0.0,0.0,0.0,0.0,0.0,0.0,0.0,0.0,0.0,0.0,0.0,0.0,0.0,0.0,0.0,0.0,0.0,0.0,0.0,0.0,0.0,0.0,0.0,0.0,0.0,0.0,0.0,0.0,0.0,0.0,0.0,0.0,0.0,0.0,0.0,0.0,0.0,0.0,0.0,0.0,0.0,0.0,0.0,0.0,0.0,0.0,0.0,0.0,0.0,0.0,0.0,0.0,0.0,0.0,0.0,0.0,0.0,0.0,0.0,0.0,0.0,0.0,0.0,0.0,0.0,0.0,0.0,0.0,0.0,0.0,0.0,0.0,0.0,0.0,0.0,-0.0003439311931058032,-0.0003416090505998119,-0.00033931964760552827,-0.00033705148565788494,-0.0003343718016572811,-0.00033186383355107143,-0.0003295505058519739,-0.0003274089370181523,-0.0003253919432615847,-0.00032303178847160484,-0.00032084777247375795,-0.0003188255212000241,-0.00031692111894828504,-0.00031508051180298977,-0.0003128506775900006,-0.0003107368659135763,-0.00030872136805821295,-0.0003067529561002891,-0.0003047690803443949,-0.0003023257771985382,-0.00029991715524714925,-0.00029754257925572296,-0.00029518352844085663,-0.00029282322356405377,-0.0002900820022689465,-0.0002874934373432859,-0.0002850966635770859,-0.00028289626829559357,-0.00028087736678371274,-0.00027865072766225865,-0.0002766951591354644,-0.00027498819612020037,-0.00027346350174035905,-0.0002720346273619456,-0.0002702599548454446,-0.0002685546935026913,-0.00026686171620719914,-0.0002651004923675231,-0.0002631918879401785,-0.0002607350136144241,-0.0002581822446274171,-0.0002555451803812702,-0.0002528304230519438,-0.0002500589966443453,-0.00024694602809614076,-0.0002440210920787512,-0.0002413611118290974,-0.00023899757580616858,-0.00023692610534851213,-0.00023479770678085267,-0.0002330080297067066,-0.00023149271447460212,-0.0002301460976409687,-0.00022885549485198668,-0.00022722954504430972,-0.00022563539686723573,-0.00022404828535658213,-0.00022243833483116801,-0.00022078488435546122,-0.00021880301727443305,-0.00021690477652706655,0.0,0.0,0.0,0.0,0.0,0.0,0.0,0.0,0.0,0.0,0.0,0.0,0.0,0.0,0.0,0.0,0.0,0.0,0.0,0.0,0.0,0.0,0.0,0.0,0.0,0.0,0.0,0.0,0.0,0.0,0.0,0.0,0.0,0.0,0.0,0.0,0.0,0.0,0.0,0.0,0.0,0.0,0.0,0.0,0.0,0.0,0.0,0.0,0.0,0.0,0.0,0.0,0.0,0.0,0.0,0.0,0.0,0.0,0.0,0.0,0.0,0.0,0.0,0.0,0.0,0.0,0.0,0.0,0.0,0.0,0.0,0.0,0.0,0.0,0.0,0.0,0.0,0.0,0.0,0.0,0.0,0.0,0.0,0.0,0.0,0.0,0.0,0.0,0.0,0.0,0.0,0.0,0.0,0.0,0.0,0.0,0.0,0.0,0.0,0.0,0.0,0.0,0.0,0.0,0.0,0.0,0.0,0.0,0.0,0.0,0.0,0.0,0.0,0.0,0.0,0.0,0.0,0.0,0.0,0.0,0.0,0.0,0.0,0.0,0.0,0.0,0.0,0.0,0.0,0.0,0.0,0.0,0.0,0.0,0.0,0.0,0.0,0.0,0.0,0.0,0.0,0.0,0.0,0.0,0.0,0.0,0.0,0.0,0.0,0.0,0.0,0.0,0.0,0.0,0.0,0.0,0.0,0.0,0.0,0.0,0.0,0.0,0.0,0.0,0.0,0.0,0.0,0.0,0.0,0.0,0.0,0.0,0.0,0.0,0.0,0.0,0.0,0.0,0.0,0.0,0.0,0.0,0.0,0.0,0.0,0.0,0.0,0.0,0.0,0.0,0.0,0.0,0.0,0.0,0.0,0.0,0.0,0.0,0.0,0.0,0.0,0.0,0.0,0.0,0.0,0.0,0.0,0.0,0.0,0.0,0.0,0.0,0.0,0.0,0.0,0.0,0.0,0.0,0.0,0.0,0.0,0.0,0.0,0.0,0.0,0.0,0.0,0.0,0.0,0.0,0.0,0.0,0.0,0.0,0.0,0.0,0.0,0.0,0.0
0.09452887057085489,0.09381446122376418,0.09163056086196553,0.08835807173133672,0.08446480061208372,0.08042277744116044,0.07650288393692686,0.07311430096864135,0.07035991512601235,0.06816517460487491,0.06631668431146598,0.06442587745710454,0.06233126932282854,0.05986274299544834,0.05697953791022162,0.05378102155236156,0.05039675992395884,0.047211288420900235,0.04450560480800919,0.04248672128558312,0.041245358793257136,0.04067518119973146,0.040722438457242875,0.04115471447355745,0.04171744171041498,0.04220210840432248,0.042419502408374575,0.04248215260381432,0.04250943505903145,0.042676579843609085,0.043158858015387824,0.04398653394388186,0.04529548304238273,0.04702739071354467,0.049035125873439125,0.05112500850232016,0.053033042008001643,0.05473678526629836,0.05623144177590188,0.057620009527097366,0.05909115898925248,0.06080055141707198,0.06303189081358898,0.06589855702483224,0.0693724383399372,0.07327184087255786,0.07719572300827154,0.08088268885600067,0.08397742462808848,0.08620895138961795,0.08745252275586325,0.08764307943582068,0.08713400215487901,0.08625176808182212,0.08533634220184945,0.08465138363575357,0.08421195130318047,0.08405265888836358,0.08390056570393378,0.08332916250124026,0.08185024451564388,0.0,0.0,0.0,0.0,0.0,0.0,0.0,0.0,0.0,0.0,0.0,0.0,0.0,0.0,0.0,0.0,0.0,0.0,0.0,0.0,0.0,0.0,0.0,0.0,0.0,0.0,0.0,0.0,0.0,0.0,0.0,0.0,0.0,0.0,0.0,0.0,0.0,0.0,0.0,0.0,0.0,0.0,0.0,0.0,0.0,0.0,0.0,0.0,0.0,0.0,0.0,0.0,0.0,0.0,0.0,0.0,0.0,0.0,0.0,0.0,0.0,0.0,0.0,0.0,0.0,0.0,0.0,0.0,0.0,0.0,0.0,0.0,0.0,0.0,0.0,0.0,0.0,0.0,0.0,0.0,0.0,0.0,0.0,0.0,0.0,0.0,0.0,0.0,0.0,0.0,0.0,0.0,0.0,0.0,0.0,0.0,0.0,0.0,0.0,0.0,0.0,0.0,0.0,0.0,0.0,0.0,0.0,0.0,0.0,0.0,0.0,0.0,0.0,0.0,0.0,0.0,0.0,0.0,0.0,0.0,0.0,0.0,0.0,0.0,0.0,0.0,0.0,0.0,0.0,0.0,0.0,0.0,0.0,0.0,0.0,0.0,0.0,0.0,0.0,0.0,0.0,0.0,0.0,0.0,0.0,0.0,0.0,0.0,0.0,0.0,0.0,0.0,0.0,0.0,0.0,0.0,0.0,0.0,0.0,0.0,0.0,0.0,0.0,0.0,0.0,0.0,0.0,0.0,0.0,0.0,0.0,0.0,0.0,0.0,0.0,0.0,0.0,0.0,0.0,0.0,0.0,0.0,0.0,0.0,0.0,0.0,0.0,0.0,0.0,0.0,0.0,0.0,0.0,0.0,0.0,0.0,0.0,0.0,0.0,0.0,0.0,0.0,0.0,0.0,0.0,0.0,0.0,0.0,0.0,0.0,0.0,0.0,0.0,0.0,0.0,0.0,0.0,0.0,0.0,0.0,0.0,0.0,0.0,0.0,0.0,0.0,0.0,0.0,0.0,0.0,0.0,0.0,0.0,0.0,0.0,0.0,0.0,0.0,0.0,-0.0001842695314101046,-0.00018233085927938872,-0.00018050276030708522,-0.00017877466135620497,-0.00017710869148902922,-0.0001754603883474597,-0.00017357869472046174,-0.00017177013611669072,-0.00017002531526413026,-0.0001683233850094892,-0.00016665124528481479,-0.0001648091596465718,-0.0001631255658820106,-0.00016161088565311784,-0.0001602387821333719,-0.00015895868191948207,-0.00015751517398507827,-0.00015612517591517974,-0.00015469639242433517,-0.00015311248126547667,-0.00015126611855414938,-0.00014890933358226415,-0.00014629481645558916,-0.0001434429030753192,-0.00014039775712339694,-0.00013723633469278686,-0.00013389877850679028,-0.000130762567508508,-0.00012791918088048834,-0.00012540423498762324,-0.00012320655083142434,-0.00012112530121780552,-0.00011933763577139965,-0.00011774729829761332,-0.00011623910434938327,-0.00011471494981777895,-0.00011297234041480508,-0.00011123670487756797,-0.0001095224298947337,-0.00010784506155795559,-0.00010622334880413357,-0.00010453932138634116,-0.00010302599232421593,-0.00010166332132944312,-0.00010039511873328093,-9.915473369720575e-05,-9.77604069131688e-05,-9.638593355582223e-05,-9.500150708062832e-05,-9.357516999173352e-05,-9.208611859027792e-05,-9.041512724235102e-05,-8.876631687652929e-05,-8.713770013031366e-05,-8.551048223360481e-05,-8.38671579342175e-05,-8.209684102576941e-05,-8.039427957150394e-05,-7.876211797816901e-05,-7.718633445673598e-05,-7.564819727815707e-05,0.0,0.0,0.0,0.0,0.0,0.0,0.0,0.0,0.0,0.0,0.0,0.0,0.0,0.0,0.0,0.0,0.0,0.0,0.0,0.0,0.0,0.0,0.0,0.0,0.0,0.0,0.0,0.0,0.0,0.0,0.0,0.0,0.0,0.0,0.0,0.0,0.0,0.0,0.0,0.0,0.0,0.0,0.0,0.0,0.0,0.0,0.0,0.0,0.0,0.0,0.0,0.0,0.0,0.0,0.0,0.0,0.0,0.0,0.0,0.0,0.0,0.0,0.0,0.0,0.0,0.0,0.0,0.0,0.0,0.0,0.0,0.0,0.0,0.0,0.0,0.0,0.0,0.0,0.0,0.0,0.0,0.0,0.0,0.0,0.0,0.0,0.0,0.0,0.0,0.0,0.0,0.0,0.0,0.0,0.0,0.0,0.0,0.0,0.0,0.0,0.0,0.0,0.0,0.0,0.0,0.0,0.0,0.0,0.0,0.0,0.0,0.0,0.0,0.0,0.0,0.0,0.0,0.0,0.0,0.0,0.0,0.0,0.0,0.0,0.0,0.0,0.0,0.0,0.0,0.0,0.0,0.0,0.0,0.0,0.0,0.0,0.0,0.0,0.0,0.0,0.0,0.0,0.0,0.0,0.0,0.0,0.0,0.0,0.0,0.0,0.0,0.0,0.0,0.0,0.0,0.0,0.0,0.0,0.0,0.0,0.0,0.0,0.0,0.0,0.0,0.0,0.0,0.0,0.0,0.0,0.0,0.0,0.0,0.0,0.0,0.0,0.0,0.0,0.0,0.0,0.0,0.0,0.0,0.0,0.0,0.0,0.0,0.0,0.0,0.0,0.0,0.0,0.0,0.0,0.0,0.0,0.0,0.0,0.0,0.0,0.0,0.0,0.0,0.0,0.0,0.0,0.0,0.0,0.0,0.0,0.0,0.0,0.0,0.0,0.0,0.0,0.0,0.0,0.0,0.0,0.0,0.0,0.0,0.0,0.0,0.0,0.0,0.0,0.0,0.0,0.0,0.0,0.0,0.0,0.0,0.0,0.0,0.0,0.0
0.08764307943582068,0.08713400215487901,0.08625176808182212,0.08533634220184945,0.08465138363575357,0.08421195130318047,0.08405265888836358,0.08390056570393378,0.08332916250124026,0.08185024451564388,0.07895025956543256,0.07445165240232367,0.06832924602430929,0.06083271440877109,0.05247270261247961,0.04390624363479818,0.036000255074633405,0.029523337955258095,0.025093964601065593,0.02309516070931534,0.023605213667569024,0.026475775321046408,0.03126035313345289,0.03732582585763983,0.04394811751130782,0.050367953325034125,0.056025817790203804,0.060465539346713185,0.06341764466851846,0.0648010743133003,0.06463332898108444,0.06320298370133207,0.06081428892399085,0.05780814409260153,0.054528737835057406,0.05122262064662083,0.04828367390676925,0.045994475422774926,0.044592962778588985,0.04425640135681451,0.04498667997471921,0.04688788554234403,0.04985543493026578,0.05365872319116626,0.05795146231642732,0.062198126962469825,0.06606048858585563,0.0691206889073187,0.07104722382267538,0.07164652327604012,0.07077884897346051,0.06873563498364887,0.06582876768027336,0.06245291410040031,0.05900973544600299,0.055712373175813366,0.0528832154093799,0.05053431287083122,0.04847904849580505,0.04637294761596587,0.043682814403282706,0.0,0.0,0.0,0.0,0.0,0.0,0.0,0.0,0.0,0.0,0.0,0.0,0.0,0.0,0.0,0.0,0.0,0.0,0.0,0.0,0.0,0.0,0.0,0.0,0.0,0.0,0.0,0.0,0.0,0.0,0.0,0.0,0.0,0.0,0.0,0.0,0.0,0.0,0.0,0.0,0.0,0.0,0.0,0.0,0.0,0.0,0.0,0.0,0.0,0.0,0.0,0.0,0.0,0.0,0.0,0.0,0.0,0.0,0.0,0.0,0.0,0.0,0.0,0.0,0.0,0.0,0.0,0.0,0.0,0.0,0.0,0.0,0.0,0.0,0.0,0.0,0.0,0.0,0.0,0.0,0.0,0.0,0.0,0.0,0.0,0.0,0.0,0.0,0.0,0.0,0.0,0.0,0.0,0.0,0.0,0.0,0.0,0.0,0.0,0.0,0.0,0.0,0.0,0.0,0.0,0.0,0.0,0.0,0.0,0.0,0.0,0.0,0.0,0.0,0.0,0.0,0.0,0.0,0.0,0.0,0.0,0.0,0.0,0.0,0.0,0.0,0.0,0.0,0.0,0.0,0.0,0.0,0.0,0.0,0.0,0.0,0.0,0.0,0.0,0.0,0.0,0.0,0.0,0.0,0.0,0.0,0.0,0.0,0.0,0.0,0.0,0.0,0.0,0.0,0.0,0.0,0.0,0.0,0.0,0.0,0.0,0.0,0.0,0.0,0.0,0.0,0.0,0.0,0.0,0.0,0.0,0.0,0.0,0.0,0.0,0.0,0.0,0.0,0.0,0.0,0.0,0.0,0.0,0.0,0.0,0.0,0.0,0.0,0.0,0.0,0.0,0.0,0.0,0.0,0.0,0.0,0.0,0.0,0.0,0.0,0.0,0.0,0.0,0.0,0.0,0.0,0.0,0.0,0.0,0.0,0.0,0.0,0.0,0.0,0.0,0.0,0.0,0.0,0.0,0.0,0.0,0.0,0.0,0.0,0.0,0.0,0.0,0.0,0.0,0.0,0.0,0.0,0.0,0.0,0.0,0.0,0.0,0.0,0.0,-9.041512724235102e-05,-8.876631687652929e-05,-8.713770013031366e-05,-8.551048223360481e-05,-8.38671579342175e-05,-8.209684102576941e-05,-8.039427957150394e-05,-7.876211797816901e-05,-7.718633445673598e-05,-7.564819727815707e-05,-7.40329593567306e-05,-7.250066418576044e-05,-7.10241859406574e-05,-6.956304222166465e-05,-6.808410029343082e-05,-6.648871630094001e-05,-6.494141196628688e-05,-6.344136728414128e-05,-6.197372066136858e-05,-6.052000330870456e-05,-5.899217971121573e-05,-5.7520422057347653e-05,-5.607259251863861e-05,-5.460619700645221e-05,-5.309201928508214e-05,-5.14696608820173e-05,-4.989228453278621e-05,-4.8386274448098986e-05,-4.697110244013284e-05,-4.5664035261459736e-05,-4.4432928021910367e-05,-4.338995802796234e-05,-4.250287504052421e-05,-4.1710496366849945e-05,-4.0944360976988955e-05,-4.0107373041377235e-05,-3.925560797288331e-05,-3.834638290452889e-05,-3.7342502688576965e-05,-3.6224686692518173e-05,-3.496460809926332e-05,-3.366686859279601e-05,-3.233664162403961e-05,-3.096948593836216e-05,-2.956443144388967e-05,-2.810750088502447e-05,-2.6700846172654e-05,-2.5358152737549788e-05,-2.4088126188353902e-05,-2.2904176195261167e-05,-2.1806705396663672e-05,-2.0884826422499842e-05,-2.01275570866567e-05,-1.949605696870958e-05,-1.8934195171853422e-05,-1.836516625128217e-05,-1.777637050263362e-05,-1.7074570998278553e-05,-1.616289601762135e-05,-1.4964214148445678e-05,-1.3434932705798238e-05,0.0,0.0,0.0,0.0,0.0,0.0,0.0,0.0,0.0,0.0,0.0,0.0,0.0,0.0,0.0,0.0,0.0,0.0,0.0,0.0,0.0,0.0,0.0,0.0,0.0,0.0,0.0,0.0,0.0,0.0,0.0,0.0,0.0,0.0,0.0,0.0,0.0,0.0,0.0,0.0,0.0,0.0,0.0,0.0,0.0,0.0,0.0,0.0,0.0,0.0,0.0,0.0,0.0,0.0,0.0,0.0,0.0,0.0,0.0,0.0,0.0,0.0,0.0,0.0,0.0,0.0,0.0,0.0,0.0,0.0,0.0,0.0,0.0,0.0,0.0,0.0,0.0,0.0,0.0,0.0,0.0,0.0,0.0,0.0,0.0,0.0,0.0,0.0,0.0,0.0,0.0,0.0,0.0,0.0,0.0,0.0,0.0,0.0,0.0,0.0,0.0,0.0,0.0,0.0,0.0,0.0,0.0,0.0,0.0,0.0,0.0,0.0,0.0,0.0,0.0,0.0,0.0,0.0,0.0,0.0,0.0,0.0,0.0,0.0,0.0,0.0,0.0,0.0,0.0,0.0,0.0,0.0,0.0,0.0,0.0,0.0,0.0,0.0,0.0,0.0,0.0,0.0,0.0,0.0,0.0,0.0,0.0,0.0,0.0,0.0,0.0,0.0,0.0,0.0,0.0,0.0,0.0,0.0,0.0,0.0,0.0,0.0,0.0,0.0,0.0,0.0,0.0,0.0,0.0,0.0,0.0,0.0,0.0,0.0,0.0,0.0,0.0,0.0,0.0,0.0,0.0,0.0,0.0,0.0,0.0,0.0,0.0,0.0,0.0,0.0,0.0,0.0,0.0,0.0,0.0,0.0,0.0,0.0,0.0,0.0,0.0,0.0,0.0,0.0,0.0,0.0,0.0,0.0,0.0,0.0,0.0,0.0,0.0,0.0,0.0,0.0,0.0,0.0,0.0,0.0,0.0,0.0,0.0,0.0,0.0,0.0,0.0,0.0,0.0,0.0,0.0,0.0,0.0,0.0,0.0,0.0,0.0,0.0,0.0
0.06873563498364887,0.06582876768027336,0.06245291410040031,0.05900973544600299,0.055712373175813366,0.0528832154093799,0.05053431287083122,0.04847904849580505,0.04637294761596587,0.043682814403282706,0.04015754077871157,0.03557006337597547,0.029918067774098916,0.02346582468330652,0.016662210454216505,0.01027563553526141,0.005055601247417006,0.001665328260944049,0.0005587017506471649,0.0018785560642412893,0.005485801943542313,0.010922042174359724,0.017522119033273085,0.024539428510103666,0.031242582388713254,0.03715887978147343,0.041999481439090304,0.04572684783180719,0.04852015526956017,0.05063957277600878,0.05252667528938097,0.05448539714203699,0.056688842506881325,0.059155441638161145,0.0617109981738996,0.0642318919715824,0.06650931074987775,0.06838333387003499,0.06979072800676211,0.07072354214347111,0.071388570732359,0.0719702335908854,0.07262883957460516,0.0734494197626875,0.07434425382308192,0.07529771918171878,0.07616211079071845,0.07679305175561066,0.07710811151861288,0.07703624204240772,0.076811859730194,0.0766379610459363,0.07671373054629885,0.07715477861825194,0.07783691551178,0.07863369731077763,0.07914805499969808,0.0788550067387011,0.07720144571789102,0.07364494362892661,0.06803214278057346,0.0,0.0,0.0,0.0,0.0,0.0,0.0,0.0,0.0,0.0,0.0,0.0,0.0,0.0,0.0,0.0,0.0,0.0,0.0,0.0,0.0,0.0,0.0,0.0,0.0,0.0,0.0,0.0,0.0,0.0,0.0,0.0,0.0,0.0,0.0,0.0,0.0,0.0,0.0,0.0,0.0,0.0,0.0,0.0,0.0,0.0,0.0,0.0,0.0,0.0,0.0,0.0,0.0,0.0,0.0,0.0,0.0,0.0,0.0,0.0,0.0,0.0,0.0,0.0,0.0,0.0,0.0,0.0,0.0,0.0,0.0,0.0,0.0,0.0,0.0,0.0,0.0,0.0,0.0,0.0,0.0,0.0,0.0,0.0,0.0,0.0,0.0,0.0,0.0,0.0,0.0,0.0,0.0,0.0,0.0,0.0,0.0,0.0,0.0,0.0,0.0,0.0,0.0,0.0,0.0,0.0,0.0,0.0,0.0,0.0,0.0,0.0,0.0,0.0,0.0,0.0,0.0,0.0,0.0,0.0,0.0,0.0,0.0,0.0,0.0,0.0,0.0,0.0,0.0,0.0,0.0,0.0,0.0,0.0,0.0,0.0,0.0,0.0,0.0,0.0,0.0,0.0,0.0,0.0,0.0,0.0,0.0,0.0,0.0,0.0,0.0,0.0,0.0,0.0,0.0,0.0,0.0,0.0,0.0,0.0,0.0,0.0,0.0,0.0,0.0,0.0,0.0,0.0,0.0,0.0,0.0,0.0,0.0,0.0,0.0,0.0,0.0,0.0,0.0,0.0,0.0,0.0,0.0,0.0,0.0,0.0,0.0,0.0,0.0,0.0,0.0,0.0,0.0,0.0,0.0,0.0,0.0,0.0,0.0,0.0,0.0,0.0,0.0,0.0,0.0,0.0,0.0,0.0,0.0,0.0,0.0,0.0,0.0,0.0,0.0,0.0,0.0,0.0,0.0,0.0,0.0,0.0,0.0,0.0,0.0,0.0,0.0,0.0,0.0,0.0,0.0,0.0,0.0,0.0,0.0,0.0,0.0,0.0,0.0,-2.0884826422499842e-05,-2.01275570866567e-05,-1.949605696870958e-05,-1.8934195171853422e-05,-1.836516625128217e-05,-1.777637050263362e-05,-1.7074570998278553e-05,-1.616289601762135e-05,-1.4964214148445678e-05,-1.3434932705798238e-05,-1.1625304246659353e-05,-9.560105066552853e-06,-7.292730546554031e-06,-4.907711774715235e-06,-2.5155719345044832e-06,-2.6430447009918e-07,1.7753983689661596e-06,3.576039032892356e-06,5.1487905990152085e-06,6.525065920540944e-06,7.738493864676233e-06,8.878226499865877e-06,1.0029914131610499e-05,1.124856905246959e-05,1.2525372148418172e-05,1.381162062792557e-05,1.5069738208912599e-05,1.6260113815323597e-05,1.734834750592397e-05,1.8286103966948244e-05,1.9069579097890263e-05,1.9746621792222257e-05,2.038568535229952e-05,2.104997710315922e-05,2.174357433383639e-05,2.2472707524547197e-05,2.3233824273106417e-05,2.4005767580141237e-05,2.4751606700394473e-05,2.5388656050653562e-05,2.5891908114046627e-05,2.6272355027502953e-05,2.6570407404646458e-05,2.68401635874898e-05,2.7088921020141073e-05,2.7377555170658494e-05,2.7758521909051686e-05,2.8270722030277444e-05,2.892872047458513e-05,2.9669116456067723e-05,3.0488197236719917e-05,3.137179261154637e-05,3.230839965571464e-05,3.328304110703826e-05,3.421955828241227e-05,3.5123333812095806e-05,3.599264786523887e-05,3.68308011745951e-05,3.763736173949139e-05,3.834735848308147e-05,3.898553441573639e-05,0.0,0.0,0.0,0.0,0.0,0.0,0.0,0.0,0.0,0.0,0.0,0.0,0.0,0.0,0.0,0.0,0.0,0.0,0.0,0.0,0.0,0.0,0.0,0.0,0.0,0.0,0.0,0.0,0.0,0.0,0.0,0.0,0.0,0.0,0.0,0.0,0.0,0.0,0.0,0.0,0.0,0.0,0.0,0.0,0.0,0.0,0.0,0.0,0.0,0.0,0.0,0.0,0.0,0.0,0.0,0.0,0.0,0.0,0.0,0.0,0.0,0.0,0.0,0.0,0.0,0.0,0.0,0.0,0.0,0.0,0.0,0.0,0.0,0.0,0.0,0.0,0.0,0.0,0.0,0.0,0.0,0.0,0.0,0.0,0.0,0.0,0.0,0.0,0.0,0.0,0.0,0.0,0.0,0.0,0.0,0.0,0.0,0.0,0.0,0.0,0.0,0.0,0.0,0.0,0.0,0.0,0.0,0.0,0.0,0.0,0.0,0.0,0.0,0.0,0.0,0.0,0.0,0.0,0.0,0.0,0.0,0.0,0.0,0.0,0.0,0.0,0.0,0.0,0.0,0.0,0.0,0.0,0.0,0.0,0.0,0.0,0.0,0.0,0.0,0.0,0.0,0.0,0.0,0.0,0.0,0.0,0.0,0.0,0.0,0.0,0.0,0.0,0.0,0.0,0.0,0.0,0.0,0.0,0.0,0.0,0.0,0.0,0.0,0.0,0.0,0.0,0.0,0.0,0.0,0.0,0.0,0.0,0.0,0.0,0.0,0.0,0.0,0.0,0.0,0.0,0.0,0.0,0.0,0.0,0.0,0.0,0.0,0.0,0.0,0.0,0.0,0.0,0.0,0.0,0.0,0.0,0.0,0.0,0.0,0.0,0.0,0.0,0.0,0.0,0.0,0.0,0.0,0.0,0.0,0.0,0.0,0.0,0.0,0.0,0.0,0.0,0.0,0.0,0.0,0.0,0.0,0.0,0.0,0.0,0.0,0.0,0.0,0.0,0.0,0.0,0.0,0.0,0.0,0.0,0.0,0.0,0.0,0.0,0.0
0.0766379610459363,0.07671373054629885,0.07715477861825194,0.07783691551178,0.07863369731077763,0.07914805499969808,0.0788550067387011,0.07720144571789102,0.07364494362892661,0.06803214278057346,0.060430058734304494,0.051226932748883645,0.04109279157282786,0.030835353710565703,0.021406472754480047,0.013618358359857547,0.008054310338772979,0.004984137427764699,0.0043309708709520995,0.005734517499431526,0.008619801146467031,0.012320529075971818,0.016200934338151483,0.019722772573151682,0.022619146245227987,0.024795732687374353,0.026332477949925298,0.027417731248538264,0.02820994270090929,0.028966882778444912,0.029798825542452737,0.03072457661656274,0.031695267214028836,0.032595152667397764,0.033438902684783584,0.03422814681151093,0.03503038255382072,0.03597280317951939,0.037185978369595724,0.03885852221612461,0.041034253141863014,0.04364529448837861,0.046519465763023446,0.049368205206429316,0.052014359573398,0.0542416393122055,0.05592477458610626,0.0570661283465275,0.05772678963621113,0.05823367983586992,0.05884535941212899,0.0597648038745948,0.06107194402975361,0.06260390278030382,0.0642020526242647,0.06546502938113527,0.06591153564421026,0.06507775971297973,0.06253770354163733,0.05825377632735043,0.05233356979097682,0.0,0.0,0.0,0.0,0.0,0.0,0.0,0.0,0.0,0.0,0.0,0.0,0.0,0.0,0.0,0.0,0.0,0.0,0.0,0.0,0.0,0.0,0.0,0.0,0.0,0.0,0.0,0.0,0.0,0.0,0.0,0.0,0.0,0.0,0.0,0.0,0.0,0.0,0.0,0.0,0.0,0.0,0.0,0.0,0.0,0.0,0.0,0.0,0.0,0.0,0.0,0.0,0.0,0.0,0.0,0.0,0.0,0.0,0.0,0.0,0.0,0.0,0.0,0.0,0.0,0.0,0.0,0.0,0.0,0.0,0.0,0.0,0.0,0.0,0.0,0.0,0.0,0.0,0.0,0.0,0.0,0.0,0.0,0.0,0.0,0.0,0.0,0.0,0.0,0.0,0.0,0.0,0.0,0.0,0.0,0.0,0.0,0.0,0.0,0.0,0.0,0.0,0.0,0.0,0.0,0.0,0.0,0.0,0.0,0.0,0.0,0.0,0.0,0.0,0.0,0.0,0.0,0.0,0.0,0.0,0.0,0.0,0.0,0.0,0.0,0.0,0.0,0.0,0.0,0.0,0.0,0.0,0.0,0.0,0.0,0.0,0.0,0.0,0.0,0.0,0.0,0.0,0.0,0.0,0.0,0.0,0.0,0.0,0.0,0.0,0.0,0.0,0.0,0.0,0.0,0.0,0.0,0.0,0.0,0.0,0.0,0.0,0.0,0.0,0.0,0.0,0.0,0.0,0.0,0.0,0.0,0.0,0.0,0.0,0.0,0.0,0.0,0.0,0.0,0.0,0.0,0.0,0.0,0.0,0.0,0.0,0.0,0.0,0.0,0.0,0.0,0.0,0.0,0.0,0.0,0.0,0.0,0.0,0.0,0.0,0.0,0.0,0.0,0.0,0.0,0.0,0.0,0.0,0.0,0.0,0.0,0.0,0.0,0.0,0.0,0.0,0.0,0.0,0.0,0.0,0.0,0.0,0.0,0.0,0.0,0.0,0.0,0.0,0.0,0.0,0.0,0.0,0.0,0.0,0.0,0.0,0.0,0.0,0.0,3.137179261154637e-05,3.230839965571464e-05,3.328304110703826e-05,3.421955828241227e-05,3.5123333812095806e-05,3.599264786523887e-05,3.68308011745951e-05,3.763736173949139e-05,3.834735848308147e-05,3.898553441573639e-05,3.9567427293353995e-05,4.011719046443574e-05,4.0659473295613684e-05,4.115043433075002e-05,4.1656102703017784e-05,4.221907177823424e-05,4.2883172439495255e-05,4.368158485173598e-05,4.4556547182117655e-05,4.5560919867273936e-05,4.66930276537996e-05,4.793524353772155e-05,4.925015737181961e-05,5.05049751692324e-05,5.1708507960552534e-05,5.283337543537368e-05,5.386914093376676e-05,5.4818729891903234e-05,5.5608690296356114e-05,5.63350300068717e-05,5.704442367975075e-05,5.7779006346245276e-05,5.856213170978425e-05,5.930142939714253e-05,6.00562574622102e-05,6.08168061364469e-05,6.157091083970006e-05,6.230553352766528e-05,6.291491236527669e-05,6.348419117006172e-05,6.404469714455545e-05,6.463106983730593e-05,6.526618476011668e-05,6.585273448967086e-05,6.646101522045688e-05,6.707759863185305e-05,6.767759203871816e-05,6.822683599256808e-05,6.858781770061075e-05,6.88302298308811e-05,6.897362487347961e-05,6.905694379757632e-05,6.912663435120259e-05,6.912214620437277e-05,6.917567214830913e-05,6.933152951369337e-05,6.961520393787073e-05,7.00264327098371e-05,7.043498194448293e-05,7.090350971218723e-05,7.141224972270424e-05,0.0,0.0,0.0,0.0,0.0,0.0,0.0,0.0,0.0,0.0,0.0,0.0,0.0,0.0,0.0,0.0,0.0,0.0,0.0,0.0,0.0,0.0,0.0,0.0,0.0,0.0,0.0,0.0,0.0,0.0,0.0,0.0,0.0,0.0,0.0,0.0,0.0,0.0,0.0,0.0,0.0,0.0,0.0,0.0,0.0,0.0,0.0,0.0,0.0,0.0,0.0,0.0,0.0,0.0,0.0,0.0,0.0,0.0,0.0,0.0,0.0,0.0,0.0,0.0,0.0,0.0,0.0,0.0,0.0,0.0,0.0,0.0,0.0,0.0,0.0,0.0,0.0,0.0,0.0,0.0,0.0,0.0,0.0,0.0,0.0,0.0,0.0,0.0,0.0,0.0,0.0,0.0,0.0,0.0,0.0,0.0,0.0,0.0,0.0,0.0,0.0,0.0,0.0,0.0,0.0,0.0,0.0,0.0,0.0,0.0,0.0,0.0,0.0,0.0,0.0,0.0,0.0,0.0,0.0,0.0,0.0,0.0,0.0,0.0,0.0,0.0,0.0,0.0,0.0,0.0,0.0,0.0,0.0,0.0,0.0,0.0,0.0,0.0,0.0,0.0,0.0,0.0,0.0,0.0,0.0,0.0,0.0,0.0,0.0,0.0,0.0,0.0,0.0,0.0,0.0,0.0,0.0,0.0,0.0,0.0,0.0,0.0,0.0,0.0,0.0,0.0,0.0,0.0,0.0,0.0,0.0,0.0,0.0,0.0,0.0,0.0,0.0,0.0,0.0,0.0,0.0,0.0,0.0,0.0,0.0,0.0,0.0,0.0,0.0,0.0,0.0,0.0,0.0,0.0,0.0,0.0,0.0,0.0,0.0,0.0,0.0,0.0,0.0,0.0,0.0,0.0,0.0,0.0,0.0,0.0,0.0,0.0,0.0,0.0,0.0,0.0,0.0,0.0,0.0,0.0,0.0,0.0,0.0,0.0,0.0,0.0,0.0,0.0,0.0,0.0,0.0,0.0,0.0,0.0,0.0,0.0,0.0,0.0,0.0
0.0597648038745948,0.06107194402975361,0.06260390278030382,0.0642020526242647,0.06546502938113527,0.06591153564421026,0.06507775971297973,0.06253770354163733,0.05825377632735043,0.05233356979097682,0.04512723441075027,0.037188452430789214,0.029148328221684665,0.021780046233357237,0.015728001570086515,0.011477122563528893,0.009299145148598706,0.009214583534122855,0.011064170444738024,0.0144969266988382,0.01903418289699929,0.024122702323858818,0.029147109543547482,0.03358944404127972,0.036957347112906755,0.0388427523135467,0.03894625949911893,0.03704663241829598,0.03320224628091738,0.027608788828430198,0.02065462693498784,0.012905063723234788,0.005007969999809302,-0.002214816663429958,-0.008018974249104393,-0.011790374213986293,-0.013136132052649359,-0.011992943503808856,-0.008496320701537441,-0.0031044800849320715,0.003525807912156652,0.01064721594664848,0.01747887562969144,0.023515615655107985,0.028397203542045665,0.032002113751276276,0.03443056394594632,0.035869972270998786,0.036768658621012314,0.03749179454964188,0.03832414641224749,0.039417159189866616,0.040686780020637026,0.0420844281679435,0.04336731273669268,0.044237088382241156,0.04440375443378691,0.04356432277823551,0.041718287590815376,0.03891817778419274,0.035359098948237286,0.0,0.0,0.0,0.0,0.0,0.0,0.0,0.0,0.0,0.0,0.0,0.0,0.0,0.0,0.0,0.0,0.0,0.0,0.0,0.0,0.0,0.0,0.0,0.0,0.0,0.0,0.0,0.0,0.0,0.0,0.0,0.0,0.0,0.0,0.0,0.0,0.0,0.0,0.0,0.0,0.0,0.0,0.0,0.0,0.0,0.0,0.0,0.0,0.0,0.0,0.0,0.0,0.0,0.0,0.0,0.0,0.0,0.0,0.0,0.0,0.0,0.0,0.0,0.0,0.0,0.0,0.0,0.0,0.0,0.0,0.0,0.0,0.0,0.0,0.0,0.0,0.0,0.0,0.0,0.0,0.0,0.0,0.0,0.0,0.0,0.0,0.0,0.0,0.0,0.0,0.0,0.0,0.0,0.0,0.0,0.0,0.0,0.0,0.0,0.0,0.0,0.0,0.0,0.0,0.0,0.0,0.0,0.0,0.0,0.0,0.0,0.0,0.0,0.0,0.0,0.0,0.0,0.0,0.0,0.0,0.0,0.0,0.0,0.0,0.0,0.0,0.0,0.0,0.0,0.0,0.0,0.0,0.0,0.0,0.0,0.0,0.0,0.0,0.0,0.0,0.0,0.0,0.0,0.0,0.0,0.0,0.0,0.0,0.0,0.0,0.0,0.0,0.0,0.0,0.0,0.0,0.0,0.0,0.0,0.0,0.0,0.0,0.0,0.0,0.0,0.0,0.0,0.0,0.0,0.0,0.0,0.0,0.0,0.0,0.0,0.0,0.0,0.0,0.0,0.0,0.0,0.0,0.0,0.0,0.0,0.0,0.0,0.0,0.0,0.0,0.0,0.0,0.0,0.0,0.0,0.0,0.0,0.0,0.0,0.0,0.0,0.0,0.0,0.0,0.0,0.0,0.0,0.0,0.0,0.0,0.0,0.0,0.0,0.0,0.0,0.0,0.0,0.0,0.0,0.0,0.0,0.0,0.0,0.0,0.0,0.0,0.0,0.0,0.0,0.0,0.0,0.0,0.0,0.0,0.0,0.0,0.0,0.0,0.0,6.905694379757632e-05,6.912663435120259e-05,6.912214620437277e-05,6.917567214830913e-05,6.933152951369337e-05,6.961520393787073e-05,7.00264327098371e-05,7.043498194448293e-05,7.090350971218723e-05,7.141224972270424e-05,7.194430027772924e-05,7.24856571375332e-05,7.291874282539796e-05,7.334848521936198e-05,7.380685449123344e-05,7.432960554601908e-05,7.494488156522931e-05,7.555511206736485e-05,7.626687572406606e-05,7.708502663247124e-05,7.799767865402662e-05,7.897417671894263e-05,7.985835647015004e-05,8.071559937031974e-05,8.152783405608878e-05,8.228900756582497e-05,8.300347187265596e-05,8.357151195612646e-05,8.412768924843766e-05,8.470979629721304e-05,8.53439603854488e-05,8.603510989010881e-05,8.665211234093106e-05,8.728133405942921e-05,8.790390274273984e-05,8.850250797339772e-05,8.906674790756169e-05,8.948284155090609e-05,8.988686746700686e-05,9.031813795352812e-05,9.080847122958933e-05,9.136879709052906e-05,9.186024099591083e-05,9.237396201121254e-05,9.287565450691821e-05,9.332225954790063e-05,9.367084627349645e-05,9.375844339827465e-05,9.371328358702019e-05,9.357090812813916e-05,9.33803939861669e-05,9.319078561555706e-05,9.291165661409637e-05,9.270423188432665e-05,9.259757155498346e-05,9.260195794695161e-05,9.271072495761767e-05,9.278007469365945e-05,9.292735816088965e-05,9.315590966610935e-05,9.346472233236166e-05,0.0,0.0,0.0,0.0,0.0,0.0,0.0,0.0,0.0,0.0,0.0,0.0,0.0,0.0,0.0,0.0,0.0,0.0,0.0,0.0,0.0,0.0,0.0,0.0,0.0,0.0,0.0,0.0,0.0,0.0,0.0,0.0,0.0,0.0,0.0,0.0,0.0,0.0,0.0,0.0,0.0,0.0,0.0,0.0,0.0,0.0,0.0,0.0,0.0,0.0,0.0,0.0,0.0,0.0,0.0,0.0,0.0,0.0,0.0,0.0,0.0,0.0,0.0,0.0,0.0,0.0,0.0,0.0,0.0,0.0,0.0,0.0,0.0,0.0,0.0,0.0,0.0,0.0,0.0,0.0,0.0,0.0,0.0,0.0,0.0,0.0,0.0,0.0,0.0,0.0,0.0,0.0,0.0,0.0,0.0,0.0,0.0,0.0,0.0,0.0,0.0,0.0,0.0,0.0,0.0,0.0,0.0,0.0,0.0,0.0,0.0,0.0,0.0,0.0,0.0,0.0,0.0,0.0,0.0,0.0,0.0,0.0,0.0,0.0,0.0,0.0,0.0,0.0,0.0,0.0,0.0,0.0,0.0,0.0,0.0,0.0,0.0,0.0,0.0,0.0,0.0,0.0,0.0,0.0,0.0,0.0,0.0,0.0,0.0,0.0,0.0,0.0,0.0,0.0,0.0,0.0,0.0,0.0,0.0,0.0,0.0,0.0,0.0,0.0,0.0,0.0,0.0,0.0,0.0,0.0,0.0,0.0,0.0,0.0,0.0,0.0,0.0,0.0,0.0,0.0,0.0,0.0,0.0,0.0,0.0,0.0,0.0,0.0,0.0,0.0,0.0,0.0,0.0,0.0,0.0,0.0,0.0,0.0,0.0,0.0,0.0,0.0,0.0,0.0,0.0,0.0,0.0,0.0,0.0,0.0,0.0,0.0,0.0,0.0,0.0,0.0,0.0,0.0,0.0,0.0,0.0,0.0,0.0,0.0,0.0,0.0,0.0,0.0,0.0,0.0,0.0,0.0,0.0,0.0,0.0,0.0,0.0,0.0,0.0
0.039417159189866616,0.040686780020637026,0.0420844281679435,0.04336731273669268,0.044237088382241156,0.04440375443378691,0.04356432277823551,0.041718287590815376,0.03891817778419274,0.035359098948237286,0.03135813799094435,0.0272442870940068,0.02352050451349579,0.020597083506027344,0.01879690394802359,0.0183125215481018,0.019128376302211297,0.021187573411835803,0.02427470367163522,0.02808227248456304,0.03224542150563147,0.03631305675870303,0.03999018664468017,0.04298671524594976,0.045090634151079965,0.04617832146316113,0.04613993498963214,0.04512149897229756,0.0432881761434954,0.04087669011628442,0.03817300976006335,0.0354199667056724,0.03298349752344657,0.031157189264678222,0.03017245584708747,0.030167698056965564,0.031116305190565432,0.03297137491164542,0.03557839007421759,0.03871351601284903,0.04210585604669703,0.04543455776391073,0.04846061205466281,0.05097449508367748,0.05284723209576578,0.054044014036428493,0.05461026738193412,0.0547002331398968,0.05447255347167604,0.05408733808341313,0.05368133056641818,0.05331900294907938,0.05310224534629225,0.05304457898281456,0.05312784381332249,0.05331864709640787,0.05352658815541889,0.053793127221401796,0.05410466307815473,0.05444779705490124,0.05480589126034014,0.0,0.0,0.0,0.0,0.0,0.0,0.0,0.0,0.0,0.0,0.0,0.0,0.0,0.0,0.0,0.0,0.0,0.0,0.0,0.0,0.0,0.0,0.0,0.0,0.0,0.0,0.0,0.0,0.0,0.0,0.0,0.0,0.0,0.0,0.0,0.0,0.0,0.0,0.0,0.0,0.0,0.0,0.0,0.0,0.0,0.0,0.0,0.0,0.0,0.0,0.0,0.0,0.0,0.0,0.0,0.0,0.0,0.0,0.0,0.0,0.0,0.0,0.0,0.0,0.0,0.0,0.0,0.0,0.0,0.0,0.0,0.0,0.0,0.0,0.0,0.0,0.0,0.0,0.0,0.0,0.0,0.0,0.0,0.0,0.0,0.0,0.0,0.0,0.0,0.0,0.0,0.0,0.0,0.0,0.0,0.0,0.0,0.0,0.0,0.0,0.0,0.0,0.0,0.0,0.0,0.0,0.0,0.0,0.0,0.0,0.0,0.0,0.0,0.0,0.0,0.0,0.0,0.0,0.0,0.0,0.0,0.0,0.0,0.0,0.0,0.0,0.0,0.0,0.0,0.0,0.0,0.0,0.0,0.0,0.0,0.0,0.0,0.0,0.0,0.0,0.0,0.0,0.0,0.0,0.0,0.0,0.0,0.0,0.0,0.0,0.0,0.0,0.0,0.0,0.0,0.0,0.0,0.0,0.0,0.0,0.0,0.0,0.0,0.0,0.0,0.0,0.0,0.0,0.0,0.0,0.0,0.0,0.0,0.0,0.0,0.0,0.0,0.0,0.0,0.0,0.0,0.0,0.0,0.0,0.0,0.0,0.0,0.0,0.0,0.0,0.0,0.0,0.0,0.0,0.0,0.0,0.0,0.0,0.0,0.0,0.0,0.0,0.0,0.0,0.0,0.0,0.0,0.0,0.0,0.0,0.0,0.0,0.0,0.0,0.0,0.0,0.0,0.0,0.0,0.0,0.0,0.0,0.0,0.0,0.0,0.0,0.0,0.0,0.0,0.0,0.0,0.0,0.0,0.0,0.0,0.0,0.0,0.0,0.0,9.319078561555706e-05,9.291165661409637e-05,9.270423188432665e-05,9.259757155498346e-05,9.260195794695161e-05,9.271072495761767e-05,9.278007469365945e-05,9.292735816088965e-05,9.315590966610935e-05,9.346472233236166e-05,9.384126216780801e-05,9.412889735524872e-05,9.442410525403848e-05,9.469321040656081e-05,9.489196770099499e-05,9.497179937799833e-05,9.476067412047748e-05,9.437859308070514e-05,9.38512025078512e-05,9.322649673087813e-05,9.256612530753375e-05,9.179972770565204e-05,9.113363582648716e-05,9.062809791777526e-05,9.030889252080363e-05,9.016045123706918e-05,8.998979467097703e-05,8.987681029441466e-05,8.976506902322379e-05,8.960820112005011e-05,8.93842599357841e-05,8.896574183867615e-05,8.85649534765567e-05,8.829260766103222e-05,8.827076931297047e-05,8.860806863449902e-05,8.923466799832021e-05,9.033137908887577e-05,9.18786229969308e-05,9.378894058285602e-05,9.59159213296144e-05,9.793418239392172e-05,9.98101561688647e-05,0.00010138858626281709,0.00010254961999093061,0.00010322377402472978,0.00010326056725240122,0.00010286733776815342,0.00010215665684568348,0.00010126265909710722,0.00010031943291581314,9.930296432494741e-05,9.84600481935537e-05,9.785799452181844e-05,9.751725347983118e-05,9.74150918068965e-05,9.735615324926046e-05,9.743135619221896e-05,9.758906721301796e-05,9.778138734811179e-05,9.797155698124434e-05,0.0,0.0,0.0,0.0,0.0,0.0,0.0,0.0,0.0,0.0,0.0,0.0,0.0,0.0,0.0,0.0,0.0,0.0,0.0,0.0,0.0,0.0,0.0,0.0,0.0,0.0,0.0,0.0,0.0,0.0,0.0,0.0,0.0,0.0,0.0,0.0,0.0,0.0,0.0,0.0,0.0,0.0,0.0,0.0,0.0,0.0,0.0,0.0,0.0,0.0,0.0,0.0,0.0,0.0,0.0,0.0,0.0,0.0,0.0,0.0,0.0,0.0,0.0,0.0,0.0,0.0,0.0,0.0,0.0,0.0,0.0,0.0,0.0,0.0,0.0,0.0,0.0,0.0,0.0,0.0,0.0,0.0,0.0,0.0,0.0,0.0,0.0,0.0,0.0,0.0,0.0,0.0,0.0,0.0,0.0,0.0,0.0,0.0,0.0,0.0,0.0,0.0,0.0,0.0,0.0,0.0,0.0,0.0,0.0,0.0,0.0,0.0,0.0,0.0,0.0,0.0,0.0,0.0,0.0,0.0,0.0,0.0,0.0,0.0,0.0,0.0,0.0,0.0,0.0,0.0,0.0,0.0,0.0,0.0,0.0,0.0,0.0,0.0,0.0,0.0,0.0,0.0,0.0,0.0,0.0,0.0,0.0,0.0,0.0,0.0,0.0,0.0,0.0,0.0,0.0,0.0,0.0,0.0,0.0,0.0,0.0,0.0,0.0,0.0,0.0,0.0,0.0,0.0,0.0,0.0,0.0,0.0,0.0,0.0,0.0,0.0,0.0,0.0,0.0,0.0,0.0,0.0,0.0,0.0,0.0,0.0,0.0,0.0,0.0,0.0,0.0,0.0,0.0,0.0,0.0,0.0,0.0,0.0,0.0,0.0,0.0,0.0,0.0,0.0,0.0,0.0,0.0,0.0,0.0,0.0,0.0,0.0,0.0,0.0,0.0,0.0,0.0,0.0,0.0,0.0,0.0,0.0,0.0,0.0,0.0,0.0,0.0,0.0,0.0,0.0,0.0,0.0,0.0,0.0,0.0,0.0,0.0,0.0,0.0
0.05331900294907938,0.05310224534629225,0.05304457898281456,0.05312784381332249,0.05331864709640787,0.05352658815541889,0.053793127221401796,0.05410466307815473,0.05444779705490124,0.05480589126034014,0.05510116046957305,0.05538170704551198,0.0556550913766688,0.055945431705796224,0.05629313542427241,0.05668745323285684,0.057235527922338714,0.057982685290175716,0.05893524547215341,0.06004463032107711,0.061136044033555874,0.06214981480094109,0.0629700306333977,0.06352108765916382,0.0637961252178818,0.0637858640759273,0.06372717765103739,0.06381484025610246,0.06421690271483392,0.0650072908187914,0.06605621409149767,0.06716898990097032,0.06792646041366594,0.06779437985605753,0.066218456419701,0.06271831494722734,0.05707596927250601,0.04932946238521802,0.03984300011340109,0.0292881315049192,0.018520610486606054,0.008602945054348473,0.0004906807168682671,-0.005066408672905543,-0.007642193409862602,-0.007264526483703882,-0.004186872612052871,0.0009546746098019924,0.007337497036000029,0.014102832243911857,0.020425164189925932,0.025868568639029883,0.03019671377787577,0.03344269406545774,0.03584785789768631,0.037681007202529135,0.039398686884300205,0.04128903516936118,0.04349227314874996,0.045985265807392,0.04854885912187798,0.0,0.0,0.0,0.0,0.0,0.0,0.0,0.0,0.0,0.0,0.0,0.0,0.0,0.0,0.0,0.0,0.0,0.0,0.0,0.0,0.0,0.0,0.0,0.0,0.0,0.0,0.0,0.0,0.0,0.0,0.0,0.0,0.0,0.0,0.0,0.0,0.0,0.0,0.0,0.0,0.0,0.0,0.0,0.0,0.0,0.0,0.0,0.0,0.0,0.0,0.0,0.0,0.0,0.0,0.0,0.0,0.0,0.0,0.0,0.0,0.0,0.0,0.0,0.0,0.0,0.0,0.0,0.0,0.0,0.0,0.0,0.0,0.0,0.0,0.0,0.0,0.0,0.0,0.0,0.0,0.0,0.0,0.0,0.0,0.0,0.0,0.0,0.0,0.0,0.0,0.0,0.0,0.0,0.0,0.0,0.0,0.0,0.0,0.0,0.0,0.0,0.0,0.0,0.0,0.0,0.0,0.0,0.0,0.0,0.0,0.0,0.0,0.0,0.0,0.0,0.0,0.0,0.0,0.0,0.0,0.0,0.0,0.0,0.0,0.0,0.0,0.0,0.0,0.0,0.0,0.0,0.0,0.0,0.0,0.0,0.0,0.0,0.0,0.0,0.0,0.0,0.0,0.0,0.0,0.0,0.0,0.0,0.0,0.0,0.0,0.0,0.0,0.0,0.0,0.0,0.0,0.0,0.0,0.0,0.0,0.0,0.0,0.0,0.0,0.0,0.0,0.0,0.0,0.0,0.0,0.0,0.0,0.0,0.0,0.0,0.0,0.0,0.0,0.0,0.0,0.0,0.0,0.0,0.0,0.0,0.0,0.0,0.0,0.0,0.0,0.0,0.0,0.0,0.0,0.0,0.0,0.0,0.0,0.0,0.0,0.0,0.0,0.0,0.0,0.0,0.0,0.0,0.0,0.0,0.0,0.0,0.0,0.0,0.0,0.0,0.0,0.0,0.0,0.0,0.0,0.0,0.0,0.0,0.0,0.0,0.0,0.0,0.0,0.0,0.0,0.0,0.0,0.0,0.0,0.0,0.0,0.0,0.0,0.0,9.930296432494741e-05,9.84600481935537e-05,9.785799452181844e-05,9.751725347983118e-05,9.74150918068965e-05,9.735615324926046e-05,9.743135619221896e-05,9.758906721301796e-05,9.778138734811179e-05,9.797155698124434e-05,9.799501976162375e-05,9.80188916006367e-05,9.808514819464372e-05,9.82409957912713e-05,9.852802215559218e-05,9.882419427241176e-05,9.930694922740737e-05,9.998295963739653e-05,0.00010082647259687135,0.00010178021328340705,0.00010261471914172965,0.00010340941716902301,0.00010410529171119102,0.00010465554018938113,0.00010503240441122192,0.00010508302582759599,0.00010499546477102952,0.00010483463457703884,0.0001046667539702561,0.0001045429874971864,0.00010434244307718343,0.0001042214359333507,0.000104165660692475,0.00010413095099606225,0.00010405357058315085,0.00010372514741668002,0.00010325416361286394,0.00010264011646757292,0.00010191103040196935,0.00010111950452202456,0.00010018675835916466,9.935612391352781e-05,9.871474440893395e-05,9.831940560595519e-05,9.818543846089825e-05,9.813150231803545e-05,9.827451570466128e-05,9.855549654719703e-05,9.890507403190967e-05,9.925979232757305e-05,9.942867887012545e-05,9.957269863839036e-05,9.973323395293327e-05,9.996755884084303e-05,0.00010033414619424783,0.000100734910436857,0.00010135594302964102,0.00010220341667632097,0.00010324055822669413,0.00010439300664463428,0.0001054199897125474,0.0,0.0,0.0,0.0,0.0,0.0,0.0,0.0,0.0,0.0,0.0,0.0,0.0,0.0,0.0,0.0,0.0,0.0,0.0,0.0,0.0,0.0,0.0,0.0,0.0,0.0,0.0,0.0,0.0,0.0,0.0,0.0,0.0,0.0,0.0,0.0,0.0,0.0,0.0,0.0,0.0,0.0,0.0,0.0,0.0,0.0,0.0,0.0,0.0,0.0,0.0,0.0,0.0,0.0,0.0,0.0,0.0,0.0,0.0,0.0,0.0,0.0,0.0,0.0,0.0,0.0,0.0,0.0,0.0,0.0,0.0,0.0,0.0,0.0,0.0,0.0,0.0,0.0,0.0,0.0,0.0,0.0,0.0,0.0,0.0,0.0,0.0,0.0,0.0,0.0,0.0,0.0,0.0,0.0,0.0,0.0,0.0,0.0,0.0,0.0,0.0,0.0,0.0,0.0,0.0,0.0,0.0,0.0,0.0,0.0,0.0,0.0,0.0,0.0,0.0,0.0,0.0,0.0,0.0,0.0,0.0,0.0,0.0,0.0,0.0,0.0,0.0,0.0,0.0,0.0,0.0,0.0,0.0,0.0,0.0,0.0,0.0,0.0,0.0,0.0,0.0,0.0,0.0,0.0,0.0,0.0,0.0,0.0,0.0,0.0,0.0,0.0,0.0,0.0,0.0,0.0,0.0,0.0,0.0,0.0,0.0,0.0,0.0,0.0,0.0,0.0,0.0,0.0,0.0,0.0,0.0,0.0,0.0,0.0,0.0,0.0,0.0,0.0,0.0,0.0,0.0,0.0,0.0,0.0,0.0,0.0,0.0,0.0,0.0,0.0,0.0,0.0,0.0,0.0,0.0,0.0,0.0,0.0,0.0,0.0,0.0,0.0,0.0,0.0,0.0,0.0,0.0,0.0,0.0,0.0,0.0,0.0,0.0,0.0,0.0,0.0,0.0,0.0,0.0,0.0,0.0,0.0,0.0,0.0,0.0,0.0,0.0,0.0,0.0,0.0,0.0,0.0,0.0,0.0,0.0,0.0,0.0,0.0,0.0
0.025868568639029883,0.03019671377787577,0.03344269406545774,0.03584785789768631,0.037681007202529135,0.039398686884300205,0.04128903516936118,0.04349227314874996,0.045985265807392,0.04854885912187798,0.05102952795120208,0.05320215214084913,0.05491140084120875,0.056122673717097685,0.05689838731207208,0.05750436782761872,0.05818471333432469,0.059143010328021564,0.06047201759714178,0.06206284319238179,0.06373496633278705,0.06508410597321244,0.0656112382703309,0.06482136147718588,0.06228574443412005,0.057892319333943974,0.05171433836769486,0.04409384065303279,0.03561423196505986,0.026976126826766558,0.019073088134526434,0.01266322432218876,0.008330843689153765,0.006407102452933834,0.006870445578488999,0.009554927149906967,0.013970760770235563,0.019466178836245584,0.025337708800268165,0.030887180180897974,0.03569197910184182,0.03950010731507753,0.042295463794552075,0.044268315147602495,0.04569706350716285,0.047004880536006634,0.04855780188373864,0.05059498913903625,0.053159149449114616,0.05600178134936451,0.05880781290158841,0.06108974489213469,0.06232407023796177,0.06204998375062674,0.05987790659738662,0.05581712435245364,0.05006828529792125,0.04307317018026884,0.035449105083966995,0.0277972595825512,0.020881126560270226,0.0,0.0,0.0,0.0,0.0,0.0,0.0,0.0,0.0,0.0,0.0,0.0,0.0,0.0,0.0,0.0,0.0,0.0,0.0,0.0,0.0,0.0,0.0,0.0,0.0,0.0,0.0,0.0,0.0,0.0,0.0,0.0,0.0,0.0,0.0,0.0,0.0,0.0,0.0,0.0,0.0,0.0,0.0,0.0,0.0,0.0,0.0,0.0,0.0,0.0,0.0,0.0,0.0,0.0,0.0,0.0,0.0,0.0,0.0,0.0,0.0,0.0,0.0,0.0,0.0,0.0,0.0,0.0,0.0,0.0,0.0,0.0,0.0,0.0,0.0,0.0,0.0,0.0,0.0,0.0,0.0,0.0,0.0,0.0,0.0,0.0,0.0,0.0,0.0,0.0,0.0,0.0,0.0,0.0,0.0,0.0,0.0,0.0,0.0,0.0,0.0,0.0,0.0,0.0,0.0,0.0,0.0,0.0,0.0,0.0,0.0,0.0,0.0,0.0,0.0,0.0,0.0,0.0,0.0,0.0,0.0,0.0,0.0,0.0,0.0,0.0,0.0,0.0,0.0,0.0,0.0,0.0,0.0,0.0,0.0,0.0,0.0,0.0,0.0,0.0,0.0,0.0,0.0,0.0,0.0,0.0,0.0,0.0,0.0,0.0,0.0,0.0,0.0,0.0,0.0,0.0,0.0,0.0,0.0,0.0,0.0,0.0,0.0,0.0,0.0,0.0,0.0,0.0,0.0,0.0,0.0,0.0,0.0,0.0,0.0,0.0,0.0,0.0,0.0,0.0,0.0,0.0,0.0,0.0,0.0,0.0,0.0,0.0,0.0,0.0,0.0,0.0,0.0,0.0,0.0,0.0,0.0,0.0,0.0,0.0,0.0,0.0,0.0,0.0,0.0,0.0,0.0,0.0,0.0,0.0,0.0,0.0,0.0,0.0,0.0,0.0,0.0,0.0,0.0,0.0,0.0,0.0,0.0,0.0,0.0,0.0,0.0,0.0,0.0,0.0,0.0,0.0,0.0,0.0,0.0,0.0,0.0,0.0,0.0,9.957269863839036e-05,9.973323395293327e-05,9.996755884084303e-05,0.00010033414619424783,0.000100734910436857,0.00010135594302964102,0.00010220341667632097,0.00010324055822669413,0.00010439300664463428,0.0001054199897125474,0.00010638910503404976,0.00010723790731065103,0.0001079280450857557,0.00010845186709502071,0.00010868838248355302,0.00010885233077335171,0.00010901982251575424,0.00010925075376138291,0.0001095725181513081,0.00010982681771006507,0.00011013370365529165,0.0001104338454639161,0.00011064753502387868,0.00011069316920759549,0.00011035984518044746,0.00010979024677460279,0.00010901201638282102,0.00010808201486739452,0.00010707772001355234,0.00010593998766620181,0.00010492916750070601,0.00010414015982058548,0.00010363986250047535,0.00010346227081950919,0.00010346225513660084,0.00010378520659059311,0.00010439711919499292,0.00010523344278387813,0.00010620347957112776,0.00010705913215457319,0.00010784964826912893,0.00010848075244427321,0.00010886707756257973,0.00010894468832274634,0.00010855059470274644,0.00010785095687783925,0.00010690796272510504,0.00010580641481222844,0.00010464229556856296,0.00010337597641173302,0.00010225226596493356,0.00010134977373880489,0.00010071079856170854,0.00010033990281437959,0.00010007072303532441,0.00010001563791326785,0.00010012637431896067,0.0001003426554735656,0.00010060177276439454,0.00010070877866096212,0.00010079060928809102,0.0,0.0,0.0,0.0,0.0,0.0,0.0,0.0,0.0,0.0,0.0,0.0,0.0,0.0,0.0,0.0,0.0,0.0,0.0,0.0,0.0,0.0,0.0,0.0,0.0,0.0,0.0,0.0,0.0,0.0,0.0,0.0,0.0,0.0,0.0,0.0,0.0,0.0,0.0,0.0,0.0,0.0,0.0,0.0,0.0,0.0,0.0,0.0,0.0,0.0,0.0,0.0,0.0,0.0,0.0,0.0,0.0,0.0,0.0,0.0,0.0,0.0,0.0,0.0,0.0,0.0,0.0,0.0,0.0,0.0,0.0,0.0,0.0,0.0,0.0,0.0,0.0,0.0,0.0,0.0,0.0,0.0,0.0,0.0,0.0,0.0,0.0,0.0,0.0,0.0,0.0,0.0,0.0,0.0,0.0,0.0,0.0,0.0,0.0,0.0,0.0,0.0,0.0,0.0,0.0,0.0,0.0,0.0,0.0,0.0,0.0,0.0,0.0,0.0,0.0,0.0,0.0,0.0,0.0,0.0,0.0,0.0,0.0,0.0,0.0,0.0,0.0,0.0,0.0,0.0,0.0,0.0,0.0,0.0,0.0,0.0,0.0,0.0,0.0,0.0,0.0,0.0,0.0,0.0,0.0,0.0,0.0,0.0,0.0,0.0,0.0,0.0,0.0,0.0,0.0,0.0,0.0,0.0,0.0,0.0,0.0,0.0,0.0,0.0,0.0,0.0,0.0,0.0,0.0,0.0,0.0,0.0,0.0,0.0,0.0,0.0,0.0,0.0,0.0,0.0,0.0,0.0,0.0,0.0,0.0,0.0,0.0,0.0,0.0,0.0,0.0,0.0,0.0,0.0,0.0,0.0,0.0,0.0,0.0,0.0,0.0,0.0,0.0,0.0,0.0,0.0,0.0,0.0,0.0,0.0,0.0,0.0,0.0,0.0,0.0,0.0,0.0,0.0,0.0,0.0,0.0,0.0,0.0,0.0,0.0,0.0,0.0,0.0,0.0,0.0,0.0,0.0,0.0,0.0,0.0,0.0,0.0,0.0,0.0
0.06108974489213469,0.06232407023796177,0.06204998375062674,0.05987790659738662,0.05581712435245364,0.05006828529792125,0.04307317018026884,0.035449105083966995,0.0277972595825512,0.020881126560270226,0.015245666724029735,0.011214489455921605,0.008848226417307254,0.007852838361726348,0.007964966713284569,0.008738174099137,0.00973983206057469,0.010640232611391,0.011160677018808917,0.01142009998002489,0.01157476183502138,0.011844891421249514,0.012432238805474744,0.013341052496849944,0.014693143069105784,0.016393828201013417,0.018273316388747293,0.020146682826531353,0.02178005612678605,0.023230885975907258,0.02459689631819749,0.026066079552760895,0.027861126847587955,0.030091718059452034,0.03293610000851717,0.036414132074715104,0.040422539731949265,0.04474724788925898,0.04902951305986262,0.05304373101418547,0.0565576251686654,0.059430891784429715,0.061633368930929994,0.06317406875465695,0.06427670303955746,0.06513205452216914,0.06591631145219332,0.06675541285001022,0.0676415027980314,0.06864885651042991,0.06973197732540803,0.07082593823350443,0.07187745676909045,0.07279878028643884,0.07369481704369535,0.07461237972601517,0.07559484732439897,0.0766603797929535,0.07772417248252349,0.07879985300912298,0.07982022929230122,0.0,0.0,0.0,0.0,0.0,0.0,0.0,0.0,0.0,0.0,0.0,0.0,0.0,0.0,0.0,0.0,0.0,0.0,0.0,0.0,0.0,0.0,0.0,0.0,0.0,0.0,0.0,0.0,0.0,0.0,0.0,0.0,0.0,0.0,0.0,0.0,0.0,0.0,0.0,0.0,0.0,0.0,0.0,0.0,0.0,0.0,0.0,0.0,0.0,0.0,0.0,0.0,0.0,0.0,0.0,0.0,0.0,0.0,0.0,0.0,0.0,0.0,0.0,0.0,0.0,0.0,0.0,0.0,0.0,0.0,0.0,0.0,0.0,0.0,0.0,0.0,0.0,0.0,0.0,0.0,0.0,0.0,0.0,0.0,0.0,0.0,0.0,0.0,0.0,0.0,0.0,0.0,0.0,0.0,0.0,0.0,0.0,0.0,0.0,0.0,0.0,0.0,0.0,0.0,0.0,0.0,0.0,0.0,0.0,0.0,0.0,0.0,0.0,0.0,0.0,0.0,0.0,0.0,0.0,0.0,0.0,0.0,0.0,0.0,0.0,0.0,0.0,0.0,0.0,0.0,0.0,0.0,0.0,0.0,0.0,0.0,0.0,0.0,0.0,0.0,0.0,0.0,0.0,0.0,0.0,0.0,0.0,0.0,0.0,0.0,0.0,0.0,0.0,0.0,0.0,0.0,0.0,0.0,0.0,0.0,0.0,0.0,0.0,0.0,0.0,0.0,0.0,0.0,0.0,0.0,0.0,0.0,0.0,0.0,0.0,0.0,0.0,0.0,0.0,0.0,0.0,0.0,0.0,0.0,0.0,0.0,0.0,0.0,0.0,0.0,0.0,0.0,0.0,0.0,0.0,0.0,0.0,0.0,0.0,0.0,0.0,0.0,0.0,0.0,0.0,0.0,0.0,0.0,0.0,0.0,0.0,0.0,0.0,0.0,0.0,0.0,0.0,0.0,0.0,0.0,0.0,0.0,0.0,0.0,0.0,0.0,0.0,0.0,0.0,0.0,0.0,0.0,0.0,0.0,0.0,0.0,0.0,0.0,0.0,0.00010134977373880489,0.00010071079856170854,0.00010033990281437959,0.00010007072303532441,0.00010001563791326785,0.00010012637431896067,0.0001003426554735656,0.00010060177276439454,0.00010070877866096212,0.00010079060928809102,0.00010084108949595566,0.0001008626575071094,0.00010086364271440948,0.00010071431017105743,0.00010059562196928245,0.00010052779076714553,0.00010051346029082667,0.00010053918520817511,0.00010044143754012274,0.00010036509250767712,0.00010030405206311687,0.00010025348053405778,0.00010021472770194074,0.000100058837000855,9.997312475492564e-05,9.998809308350377e-05,0.00010011525522076225,0.00010034074479677309,0.00010048654087892762,0.0001006521600708512,0.00010076501363223476,0.0001007341545550998,0.00010046676189160545,9.975352577374148e-05,9.871720441682782e-05,9.73791584763254e-05,9.580221778007405e-05,9.408743112121029e-05,9.222875908026932e-05,9.053363247147803e-05,8.915022714144503e-05,8.818896513513562e-05,8.770810035081514e-05,8.757087172800611e-05,8.78904880994416e-05,8.858055799670144e-05,8.951605641690599e-05,9.055537746385182e-05,9.142807497963159e-05,9.219007882010422e-05,9.278495416133971e-05,9.318778495424043e-05,9.340265457688851e-05,9.332230579879987e-05,9.314875164292148e-05,9.294201848111476e-05,9.274749967702457e-05,9.25904208087397e-05,9.234481602280432e-05,9.215704125206447e-05,9.201726128719424e-05,0.0,0.0,0.0,0.0,0.0,0.0,0.0,0.0,0.0,0.0,0.0,0.0,0.0,0.0,0.0,0.0,0.0,0.0,0.0,0.0,0.0,0.0,0.0,0.0,0.0,0.0,0.0,0.0,0.0,0.0,0.0,0.0,0.0,0.0,0.0,0.0,0.0,0.0,0.0,0.0,0.0,0.0,0.0,0.0,0.0,0.0,0.0,0.0,0.0,0.0,0.0,0.0,0.0,0.0,0.0,0.0,0.0,0.0,0.0,0.0,0.0,0.0,0.0,0.0,0.0,0.0,0.0,0.0,0.0,0.0,0.0,0.0,0.0,0.0,0.0,0.0,0.0,0.0,0.0,0.0,0.0,0.0,0.0,0.0,0.0,0.0,0.0,0.0,0.0,0.0,0.0,0.0,0.0,0.0,0.0,0.0,0.0,0.0,0.0,0.0,0.0,0.0,0.0,0.0,0.0,0.0,0.0,0.0,0.0,0.0,0.0,0.0,0.0,0.0,0.0,0.0,0.0,0.0,0.0,0.0,0.0,0.0,0.0,0.0,0.0,0.0,0.0,0.0,0.0,0.0,0.0,0.0,0.0,0.0,0.0,0.0,0.0,0.0,0.0,0.0,0.0,0.0,0.0,0.0,0.0,0.0,0.0,0.0,0.0,0.0,0.0,0.0,0.0,0.0,0.0,0.0,0.0,0.0,0.0,0.0,0.0,0.0,0.0,0.0,0.0,0.0,0.0,0.0,0.0,0.0,0.0,0.0,0.0,0.0,0.0,0.0,0.0,0.0,0.0,0.0,0.0,0.0,0.0,0.0,0.0,0.0,0.0,0.0,0.0,0.0,0.0,0.0,0.0,0.0,0.0,0.0,0.0,0.0,0.0,0.0,0.0,0.0,0.0,0.0,0.0,0.0,0.0,0.0,0.0,0.0,0.0,0.0,0.0,0.0,0.0,0.0,0.0,0.0,0.0,0.0,0.0,0.0,0.0,0.0,0.0,0.0,0.0,0.0,0.0,0.0,0.0,0.0,0.0,0.0,0.0,0.0,0.0,0.0,0.0
0.07082593823350443,0.07187745676909045,0.07279878028643884,0.07369481704369535,0.07461237972601517,0.07559484732439897,0.0766603797929535,0.07772417248252349,0.07879985300912298,0.07982022929230122,0.08071697343344733,0.08144330281681654,0.08192900445326891,0.08226301763402058,0.08253125868355031,0.08282463037676147,0.08320302102586663,0.0836132452066959,0.08405751097086252,0.08446940914339607,0.08478281710001268,0.08496273923491672,0.0849721362257046,0.08493628709739624,0.08498169901966977,0.08522798286331777,0.08573252830163339,0.0863764905453412,0.08705645709741328,0.08751553593171867,0.08743626044249467,0.08650231736835005,0.08438462385002428,0.08106168159389988,0.07662895131949007,0.0713599743062478,0.06566279013167331,0.05991128874517186,0.05466034783666112,0.050285405410400115,0.04699993822108542,0.044823262894996566,0.04348134491442284,0.04279867934359164,0.04244449089944534,0.042114750026614266,0.0416032592622584,0.04075633783100304,0.03976855145525236,0.038859463558311685,0.03830807907499758,0.038383255629520246,0.039207956471562694,0.04094526216137757,0.04352132447767257,0.046724281488960344,0.05024773990969246,0.05368965816442006,0.05681485663744711,0.059360743079259114,0.06115118564924234,0.0,0.0,0.0,0.0,0.0,0.0,0.0,0.0,0.0,0.0,0.0,0.0,0.0,0.0,0.0,0.0,0.0,0.0,0.0,0.0,0.0,0.0,0.0,0.0,0.0,0.0,0.0,0.0,0.0,0.0,0.0,0.0,0.0,0.0,0.0,0.0,0.0,0.0,0.0,0.0,0.0,0.0,0.0,0.0,0.0,0.0,0.0,0.0,0.0,0.0,0.0,0.0,0.0,0.0,0.0,0.0,0.0,0.0,0.0,0.0,0.0,0.0,0.0,0.0,0.0,0.0,0.0,0.0,0.0,0.0,0.0,0.0,0.0,0.0,0.0,0.0,0.0,0.0,0.0,0.0,0.0,0.0,0.0,0.0,0.0,0.0,0.0,0.0,0.0,0.0,0.0,0.0,0.0,0.0,0.0,0.0,0.0,0.0,0.0,0.0,0.0,0.0,0.0,0.0,0.0,0.0,0.0,0.0,0.0,0.0,0.0,0.0,0.0,0.0,0.0,0.0,0.0,0.0,0.0,0.0,0.0,0.0,0.0,0.0,0.0,0.0,0.0,0.0,0.0,0.0,0.0,0.0,0.0,0.0,0.0,0.0,0.0,0.0,0.0,0.0,0.0,0.0,0.0,0.0,0.0,0.0,0.0,0.0,0.0,0.0,0.0,0.0,0.0,0.0,0.0,0.0,0.0,0.0,0.0,0.0,0.0,0.0,0.0,0.0,0.0,0.0,0.0,0.0,0.0,0.0,0.0,0.0,0.0,0.0,0.0,0.0,0.0,0.0,0.0,0.0,0.0,0.0,0.0,0.0,0.0,0.0,0.0,0.0,0.0,0.0,0.0,0.0,0.0,0.0,0.0,0.0,0.0,0.0,0.0,0.0,0.0,0.0,0.0,0.0,0.0,0.0,0.0,0.0,0.0,0.0,0.0,0.0,0.0,0.0,0.0,0.0,0.0,0.0,0.0,0.0,0.0,0.0,0.0,0.0,0.0,0.0,0.0,0.0,0.0,0.0,0.0,0.0,0.0,0.0,0.0,0.0,0.0,0.0,0.0,9.318778495424043e-05,9.340265457688851e-05,9.332230579879987e-05,9.314875164292148e-05,9.294201848111476e-05,9.274749967702457e-05,9.25904208087397e-05,9.234481602280432e-05,9.215704125206447e-05,9.201726128719424e-05,9.190120389273248e-05,9.177818704059085e-05,9.149231154372865e-05,9.117977970027242e-05,9.084552636873074e-05,9.049759218209451e-05,9.01470195778817e-05,8.96803662412032e-05,8.926724961545133e-05,8.893182569707433e-05,8.868327482072236e-05,8.851585211517256e-05,8.828553309023011e-05,8.8122857853276e-05,8.801388070086999e-05,8.793816336910031e-05,8.787482463624897e-05,8.76804782159441e-05,8.750512005714151e-05,8.736464254207251e-05,8.727186086084249e-05,8.723379715732539e-05,8.712075615533468e-05,8.708235395275361e-05,8.711690484001213e-05,8.720791594186935e-05,8.732921392527946e-05,8.732766024899319e-05,8.733127444705492e-05,8.7342835509951e-05,8.736986969913076e-05,8.742463069323353e-05,8.74021818741348e-05,8.746118136912609e-05,8.762554411926785e-05,8.789894019632951e-05,8.826039640236736e-05,8.854331558641302e-05,8.88300160726617e-05,8.906114043463252e-05,8.917021053149401e-05,8.90961621115012e-05,8.867347568519738e-05,8.803621104770815e-05,8.721634198458613e-05,8.62681375217719e-05,8.52617740647785e-05,8.415766720394406e-05,8.317085803933067e-05,8.236919926774259e-05,8.17878157830176e-05,0.0,0.0,0.0,0.0,0.0,0.0,0.0,0.0,0.0,0.0,0.0,0.0,0.0,0.0,0.0,0.0,0.0,0.0,0.0,0.0,0.0,0.0,0.0,0.0,0.0,0.0,0.0,0.0,0.0,0.0,0.0,0.0,0.0,0.0,0.0,0.0,0.0,0.0,0.0,0.0,0.0,0.0,0.0,0.0,0.0,0.0,0.0,0.0,0.0,0.0,0.0,0.0,0.0,0.0,0.0,0.0,0.0,0.0,0.0,0.0,0.0,0.0,0.0,0.0,0.0,0.0,0.0,0.0,0.0,0.0,0.0,0.0,0.0,0.0,0.0,0.0,0.0,0.0,0.0,0.0,0.0,0.0,0.0,0.0,0.0,0.0,0.0,0.0,0.0,0.0,0.0,0.0,0.0,0.0,0.0,0.0,0.0,0.0,0.0,0.0,0.0,0.0,0.0,0.0,0.0,0.0,0.0,0.0,0.0,0.0,0.0,0.0,0.0,0.0,0.0,0.0,0.0,0.0,0.0,0.0,0.0,0.0,0.0,0.0,0.0,0.0,0.0,0.0,0.0,0.0,0.0,0.0,0.0,0.0,0.0,0.0,0.0,0.0,0.0,0.0,0.0,0.0,0.0,0.0,0.0,0.0,0.0,0.0,0.0,0.0,0.0,0.0,0.0,0.0,0.0,0.0,0.0,0.0,0.0,0.0,0.0,0.0,0.0,0.0,0.0,0.0,0.0,0.0,0.0,0.0,0.0,0.0,0.0,0.0,0.0,0.0,0.0,0.0,0.0,0.0,0.0,0.0,0.0,0.0,0.0,0.0,0.0,0.0,0.0,0.0,0.0,0.0,0.0,0.0,0.0,0.0,0.0,0.0,0.0,0.0,0.0,0.0,0.0,0.0,0.0,0.0,0.0,0.0,0.0,0.0,0.0,0.0,0.0,0.0,0.0,0.0,0.0,0.0,0.0,0.0,0.0,0.0,0.0,0.0,0.0,0.0,0.0,0.0,0.0,0.0,0.0,0.0,0.0,0.0,0.0,0.0,0.0,0.0,0.0
0.038383255629520246,0.039207956471562694,0.04094526216137757,0.04352132447767257,0.046724281488960344,0.05024773990969246,0.05368965816442006,0.05681485663744711,0.059360743079259114,0.06115118564924234,0.06211222418986467,0.062220023320571555,0.06165759667217139,0.06056568214356463,0.05910366694722981,0.05744362052545739,0.05572516986094161,0.054222089468471395,0.053119870920113985,0.0525887906221163,0.0527750168610501,0.053740139375821346,0.05559217167574858,0.058247934539653864,0.06150678133869733,0.06507513699174486,0.06854220661268286,0.07168913150085787,0.07426940109994945,0.07615685637084815,0.0773752571224396,0.07798884361823034,0.07839381525138266,0.07889087538739768,0.07971127268842802,0.08094317290802627,0.08243938697050253,0.08398804155484081,0.08516043790493594,0.08547428402417985,0.08451108869361294,0.0820278685080668,0.07802767647515418,0.07272030478395389,0.06650996147041931,0.05991711395021249,0.05352220095107861,0.0477419931559021,0.0428011000052269,0.03871395469768269,0.035323139206812036,0.03246161968245913,0.029793685016664618,0.027037876069541292,0.02401180096828325,0.020678344081467813,0.017171291143413227,0.01372980955681412,0.010602896481855096,0.008000325745225351,0.0060335489561235914,0.0,0.0,0.0,0.0,0.0,0.0,0.0,0.0,0.0,0.0,0.0,0.0,0.0,0.0,0.0,0.0,0.0,0.0,0.0,0.0,0.0,0.0,0.0,0.0,0.0,0.0,0.0,0.0,0.0,0.0,0.0,0.0,0.0,0.0,0.0,0.0,0.0,0.0,0.0,0.0,0.0,0.0,0.0,0.0,0.0,0.0,0.0,0.0,0.0,0.0,0.0,0.0,0.0,0.0,0.0,0.0,0.0,0.0,0.0,0.0,0.0,0.0,0.0,0.0,0.0,0.0,0.0,0.0,0.0,0.0,0.0,0.0,0.0,0.0,0.0,0.0,0.0,0.0,0.0,0.0,0.0,0.0,0.0,0.0,0.0,0.0,0.0,0.0,0.0,0.0,0.0,0.0,0.0,0.0,0.0,0.0,0.0,0.0,0.0,0.0,0.0,0.0,0.0,0.0,0.0,0.0,0.0,0.0,0.0,0.0,0.0,0.0,0.0,0.0,0.0,0.0,0.0,0.0,0.0,0.0,0.0,0.0,0.0,0.0,0.0,0.0,0.0,0.0,0.0,0.0,0.0,0.0,0.0,0.0,0.0,0.0,0.0,0.0,0.0,0.0,0.0,0.0,0.0,0.0,0.0,0.0,0.0,0.0,0.0,0.0,0.0,0.0,0.0,0.0,0.0,0.0,0.0,0.0,0.0,0.0,0.0,0.0,0.0,0.0,0.0,0.0,0.0,0.0,0.0,0.0,0.0,0.0,0.0,0.0,0.0,0.0,0.0,0.0,0.0,0.0,0.0,0.0,0.0,0.0,0.0,0.0,0.0,0.0,0.0,0.0,0.0,0.0,0.0,0.0,0.0,0.0,0.0,0.0,0.0,0.0,0.0,0.0,0.0,0.0,0.0,0.0,0.0,0.0,0.0,0.0,0.0,0.0,0.0,0.0,0.0,0.0,0.0,0.0,0.0,0.0,0.0,0.0,0.0,0.0,0.0,0.0,0.0,0.0,0.0,0.0,0.0,0.0,0.0,0.0,0.0,0.0,0.0,0.0,0.0,8.90961621115012e-05,8.867347568519738e-05,8.803621104770815e-05,8.721634198458613e-05,8.62681375217719e-05,8.52617740647785e-05,8.415766720394406e-05,8.317085803933067e-05,8.236919926774259e-05,8.17878157830176e-05,8.14273860180558e-05,8.114866861943575e-05,8.103830255499628e-05,8.104449972716424e-05,8.110819592612138e-05,8.117650011029058e-05,8.110322390343464e-05,8.101432287739345e-05,8.093277835255886e-05,8.089144614218118e-05,8.092561420252538e-05,8.095299373979368e-05,8.11268359366668e-05,8.145485865824689e-05,8.19144650713409e-05,8.24567606476521e-05,8.290706986837278e-05,8.333022800357413e-05,8.367526612362107e-05,8.39017326523933e-05,8.398790709277881e-05,8.382819816147174e-05,8.357555932615806e-05,8.327342431970683e-05,8.296034009249998e-05,8.266341011796409e-05,8.228684428092659e-05,8.19661269606771e-05,8.170535949747625e-05,8.149888067866099e-05,8.133891314314936e-05,8.111008952949085e-05,8.095234135981634e-05,8.088443733016662e-05,8.091372956523952e-05,8.102889802398896e-05,8.108409621276131e-05,8.11566620692606e-05,8.117838863290842e-05,8.10623273214251e-05,8.071888290482856e-05,7.996486420510519e-05,7.88978347353793e-05,7.753597353699964e-05,7.593939779974915e-05,7.420707539440914e-05,7.236174164804503e-05,7.067063656203011e-05,6.927108501691672e-05,6.826271767756731e-05,6.769526788398973e-05,0.0,0.0,0.0,0.0,0.0,0.0,0.0,0.0,0.0,0.0,0.0,0.0,0.0,0.0,0.0,0.0,0.0,0.0,0.0,0.0,0.0,0.0,0.0,0.0,0.0,0.0,0.0,0.0,0.0,0.0,0.0,0.0,0.0,0.0,0.0,0.0,0.0,0.0,0.0,0.0,0.0,0.0,0.0,0.0,0.0,0.0,0.0,0.0,0.0,0.0,0.0,0.0,0.0,0.0,0.0,0.0,0.0,0.0,0.0,0.0,0.0,0.0,0.0,0.0,0.0,0.0,0.0,0.0,0.0,0.0,0.0,0.0,0.0,0.0,0.0,0.0,0.0,0.0,0.0,0.0,0.0,0.0,0.0,0.0,0.0,0.0,0.0,0.0,0.0,0.0,0.0,0.0,0.0,0.0,0.0,0.0,0.0,0.0,0.0,0.0,0.0,0.0,0.0,0.0,0.0,0.0,0.0,0.0,0.0,0.0,0.0,0.0,0.0,0.0,0.0,0.0,0.0,0.0,0.0,0.0,0.0,0.0,0.0,0.0,0.0,0.0,0.0,0.0,0.0,0.0,0.0,0.0,0.0,0.0,0.0,0.0,0.0,0.0,0.0,0.0,0.0,0.0,0.0,0.0,0.0,0.0,0.0,0.0,0.0,0.0,0.0,0.0,0.0,0.0,0.0,0.0,0.0,0.0,0.0,0.0,0.0,0.0,0.0,0.0,0.0,0.0,0.0,0.0,0.0,0.0,0.0,0.0,0.0,0.0,0.0,0.0,0.0,0.0,0.0,0.0,0.0,0.0,0.0,0.0,0.0,0.0,0.0,0.0,0.0,0.0,0.0,0.0,0.0,0.0,0.0,0.0,0.0,0.0,0.0,0.0,0.0,0.0,0.0,0.0,0.0,0.0,0.0,0.0,0.0,0.0,0.0,0.0,0.0,0.0,0.0,0.0,0.0,0.0,0.0,0.0,0.0,0.0,0.0,0.0,0.0,0.0,0.0,0.0,0.0,0.0,0.0,0.0,0.0,0.0,0.0,0.0,0.0,0.0,0.0
0.03246161968245913,0.029793685016664618,0.027037876069541292,0.02401180096828325,0.020678344081467813,0.017171291143413227,0.01372980955681412,0.010602896481855096,0.008000325745225351,0.0060335489561235914,0.0046284834189223075,0.0037057369880504273,0.003012406134844544,0.0022636322668059153,0.0012355705275730888,-0.00019096398602282493,-0.001815281994875235,-0.003284823896465959,-0.00407211781152995,-0.0035624079009774134,-0.0012161978956871343,0.0034205027869145203,0.01043414614426346,0.019521121024678113,0.02998025084983779,0.04070057419033539,0.05055349427261203,0.058299864956448046,0.06286696892734293,0.06352290960065299,0.05988108427061749,0.0523419016754344,0.04167571723021798,0.029014715349916627,0.01565661124671852,0.0026973372559804315,-0.008777144227633994,-0.018280679942109714,-0.025889506693312747,-0.03220968710721594,-0.038363534012237493,-0.04527952876154399,-0.05383286953182331,-0.06443947058543373,-0.07687613827793567,-0.0903840158209119,-0.10334978818525932,-0.11396934219845756,-0.12048396866985046,-0.12154258944865541,-0.11662708975667384,-0.1057712166137399,-0.08990058207598625,-0.07056439918431939,-0.04966627470554471,-0.029291849044851933,-0.011008643017545599,0.003999427581072369,0.015105656892592665,0.022210040037566,0.02549519698673867,0.0,0.0,0.0,0.0,0.0,0.0,0.0,0.0,0.0,0.0,0.0,0.0,0.0,0.0,0.0,0.0,0.0,0.0,0.0,0.0,0.0,0.0,0.0,0.0,0.0,0.0,0.0,0.0,0.0,0.0,0.0,0.0,0.0,0.0,0.0,0.0,0.0,0.0,0.0,0.0,0.0,0.0,0.0,0.0,0.0,0.0,0.0,0.0,0.0,0.0,0.0,0.0,0.0,0.0,0.0,0.0,0.0,0.0,0.0,0.0,0.0,0.0,0.0,0.0,0.0,0.0,0.0,0.0,0.0,0.0,0.0,0.0,0.0,0.0,0.0,0.0,0.0,0.0,0.0,0.0,0.0,0.0,0.0,0.0,0.0,0.0,0.0,0.0,0.0,0.0,0.0,0.0,0.0,0.0,0.0,0.0,0.0,0.0,0.0,0.0,0.0,0.0,0.0,0.0,0.0,0.0,0.0,0.0,0.0,0.0,0.0,0.0,0.0,0.0,0.0,0.0,0.0,0.0,0.0,0.0,0.0,0.0,0.0,0.0,0.0,0.0,0.0,0.0,0.0,0.0,0.0,0.0,0.0,0.0,0.0,0.0,0.0,0.0,0.0,0.0,0.0,0.0,0.0,0.0,0.0,0.0,0.0,0.0,0.0,0.0,0.0,0.0,0.0,0.0,0.0,0.0,0.0,0.0,0.0,0.0,0.0,0.0,0.0,0.0,0.0,0.0,0.0,0.0,0.0,0.0,0.0,0.0,0.0,0.0,0.0,0.0,0.0,0.0,0.0,0.0,0.0,0.0,0.0,0.0,0.0,0.0,0.0,0.0,0.0,0.0,0.0,0.0,0.0,0.0,0.0,0.0,0.0,0.0,0.0,0.0,0.0,0.0,0.0,0.0,0.0,0.0,0.0,0.0,0.0,0.0,0.0,0.0,0.0,0.0,0.0,0.0,0.0,0.0,0.0,0.0,0.0,0.0,0.0,0.0,0.0,0.0,0.0,0.0,0.0,0.0,0.0,0.0,0.0,0.0,0.0,0.0,0.0,0.0,0.0,7.996486420510519e-05,7.88978347353793e-05,7.753597353699964e-05,7.593939779974915e-05,7.420707539440914e-05,7.236174164804503e-05,7.067063656203011e-05,6.927108501691672e-05,6.826271767756731e-05,6.769526788398973e-05,6.746647891103788e-05,6.764607727622831e-05,6.815170570606183e-05,6.887076741926496e-05,6.967976577294021e-05,7.036293387044732e-05,7.094941259775447e-05,7.138229586835295e-05,7.16259823358382e-05,7.16642636618907e-05,7.139597022262546e-05,7.095922038122142e-05,7.038844262371732e-05,6.972084202601729e-05,6.899859580675321e-05,6.817189333293949e-05,6.742383911443528e-05,6.682772067604608e-05,6.64479646680549e-05,6.633292795161571e-05,6.640915334648626e-05,6.679589526587321e-05,6.746305347318839e-05,6.834120888914073e-05,6.933192897724038e-05,7.022908197114444e-05,7.1044918502133e-05,7.16986058132108e-05,7.213429719328701e-05,7.233093000286505e-05,7.221470511233887e-05,7.194959756686865e-05,7.160773789395355e-05,7.125564516374949e-05,7.094160596125017e-05,7.059693393034181e-05,7.032863701656726e-05,7.010568118448078e-05,6.986990937040927e-05,6.95522819196353e-05,6.900069340918705e-05,6.829102095831512e-05,6.742086045828661e-05,6.641460831679828e-05,6.53232912420863e-05,6.413534564465094e-05,6.304137392621736e-05,6.212932453715151e-05,6.146678904589217e-05,6.10943005645373e-05,6.094471966073913e-05,0.0,0.0,0.0,0.0,0.0,0.0,0.0,0.0,0.0,0.0,0.0,0.0,0.0,0.0,0.0,0.0,0.0,0.0,0.0,0.0,0.0,0.0,0.0,0.0,0.0,0.0,0.0,0.0,0.0,0.0,0.0,0.0,0.0,0.0,0.0,0.0,0.0,0.0,0.0,0.0,0.0,0.0,0.0,0.0,0.0,0.0,0.0,0.0,0.0,0.0,0.0,0.0,0.0,0.0,0.0,0.0,0.0,0.0,0.0,0.0,0.0,0.0,0.0,0.0,0.0,0.0,0.0,0.0,0.0,0.0,0.0,0.0,0.0,0.0,0.0,0.0,0.0,0.0,0.0,0.0,0.0,0.0,0.0,0.0,0.0,0.0,0.0,0.0,0.0,0.0,0.0,0.0,0.0,0.0,0.0,0.0,0.0,0.0,0.0,0.0,0.0,0.0,0.0,0.0,0.0,0.0,0.0,0.0,0.0,0.0,0.0,0.0,0.0,0.0,0.0,0.0,0.0,0.0,0.0,0.0,0.0,0.0,0.0,0.0,0.0,0.0,0.0,0.0,0.0,0.0,0.0,0.0,0.0,0.0,0.0,0.0,0.0,0.0,0.0,0.0,0.0,0.0,0.0,0.0,0.0,0.0,0.0,0.0,0.0,0.0,0.0,0.0,0.0,0.0,0.0,0.0,0.0,0.0,0.0,0.0,0.0,0.0,0.0,0.0,0.0,0.0,0.0,0.0,0.0,0.0,0.0,0.0,0.0,0.0,0.0,0.0,0.0,0.0,0.0,0.0,0.0,0.0,0.0,0.0,0.0,0.0,0.0,0.0,0.0,0.0,0.0,0.0,0.0,0.0,0.0,0.0,0.0,0.0,0.0,0.0,0.0,0.0,0.0,0.0,0.0,0.0,0.0,0.0,0.0,0.0,0.0,0.0,0.0,0.0,0.0,0.0,0.0,0.0,0.0,0.0,0.0,0.0,0.0,0.0,0.0,0.0,0.0,0.0,0.0,0.0,0.0,0.0,0.0,0.0,0.0,0.0,0.0,0.0,0.0
-0.1057712166137399,-0.08990058207598625,-0.07056439918431939,-0.04966627470554471,-0.029291849044851933,-0.011008643017545599,0.003999427581072369,0.015105656892592665,0.022210040037566,0.02549519698673867,0.025689799256715763,0.02361726813871623,0.02015500242590225,0.016144309678425894,0.012238748668076253,0.009169637383659964,0.007511758049534782,0.007716827499025587,0.010078579319285795,0.01463497339855665,0.02131720152035352,0.029813919787207717,0.03962083907048687,0.0500877126976811,0.060424881728861506,0.0700207565820227,0.07833990837110477,0.08505768765952049,0.0900968460760764,0.09353581269747083,0.09581653330534325,0.09738409470104634,0.09867242999756835,0.10001943886959869,0.10158044013060438,0.10343321032524574,0.10551424804641517,0.10771338102531477,0.10994203166312096,0.11218918883375621,0.11448563841139939,0.11693776824732557,0.11963735022653142,0.12259479398378337,0.12571114781555656,0.12872851314855732,0.13141940122863477,0.13360995461031852,0.1352475563044458,0.1364448969095519,0.13738441003377191,0.13843674877919301,0.13994628883488344,0.14208097383870916,0.14469463180769176,0.14735831819013395,0.1494309556292989,0.1501737645810562,0.1489143913729725,0.14514207722567954,0.13882341706389734,0.0,0.0,0.0,0.0,0.0,0.0,0.0,0.0,0.0,0.0,0.0,0.0,0.0,0.0,0.0,0.0,0.0,0.0,0.0,0.0,0.0,0.0,0.0,0.0,0.0,0.0,0.0,0.0,0.0,0.0,0.0,0.0,0.0,0.0,0.0,0.0,0.0,0.0,0.0,0.0,0.0,0.0,0.0,0.0,0.0,0.0,0.0,0.0,0.0,0.0,0.0,0.0,0.0,0.0,0.0,0.0,0.0,0.0,0.0,0.0,0.0,0.0,0.0,0.0,0.0,0.0,0.0,0.0,0.0,0.0,0.0,0.0,0.0,0.0,0.0,0.0,0.0,0.0,0.0,0.0,0.0,0.0,0.0,0.0,0.0,0.0,0.0,0.0,0.0,0.0,0.0,0.0,0.0,0.0,0.0,0.0,0.0,0.0,0.0,0.0,0.0,0.0,0.0,0.0,0.0,0.0,0.0,0.0,0.0,0.0,0.0,0.0,0.0,0.0,0.0,0.0,0.0,0.0,0.0,0.0,0.0,0.0,0.0,0.0,0.0,0.0,0.0,0.0,0.0,0.0,0.0,0.0,0.0,0.0,0.0,0.0,0.0,0.0,0.0,0.0,0.0,0.0,0.0,0.0,0.0,0.0,0.0,0.0,0.0,0.0,0.0,0.0,0.0,0.0,0.0,0.0,0.0,0.0,0.0,0.0,0.0,0.0,0.0,0.0,0.0,0.0,0.0,0.0,0.0,0.0,0.0,0.0,0.0,0.0,0.0,0.0,0.0,0.0,0.0,0.0,0.0,0.0,0.0,0.0,0.0,0.0,0.0,0.0,0.0,0.0,0.0,0.0,0.0,0.0,0.0,0.0,0.0,0.0,0.0,0.0,0.0,0.0,0.0,0.0,0.0,0.0,0.0,0.0,0.0,0.0,0.0,0.0,0.0,0.0,0.0,0.0,0.0,0.0,0.0,0.0,0.0,0.0,0.0,0.0,0.0,0.0,0.0,0.0,0.0,0.0,0.0,0.0,0.0,0.0,0.0,0.0,0.0,0.0,0.0,6.829102095831512e-05,6.742086045828661e-05,6.641460831679828e-05,6.53232912420863e-05,6.413534564465094e-05,6.304137392621736e-05,6.212932453715151e-05,6.146678904589217e-05,6.10943005645373e-05,6.094471966073913e-05,6.109647977243643e-05,6.150674498431328e-05,6.210294356621459e-05,6.279304624133699e-05,6.340263421591511e-05,6.393707327502908e-05,6.43255742555656e-05,6.451769452419936e-05,6.449179191813667e-05,6.4184393243418e-05,6.373116716788025e-05,6.319082500134252e-05,6.262013496353668e-05,6.206477255750212e-05,6.148010558460424e-05,6.0967520085768113e-05,6.05150147030287e-05,6.0087329904437206e-05,5.963775319686757e-05,5.9050101833374644e-05,5.8385023083290844e-05,5.763395654606404e-05,5.6804550242204096e-05,5.592223196268284e-05,5.495504382816285e-05,5.405020428470083e-05,5.3264324133802254e-05,5.26409433034602e-05,5.220671072849811e-05,5.189439022410625e-05,5.1791463565354816e-05,5.1870567242251945e-05,5.2081542262767985e-05,5.2360168331590705e-05,5.256457174641442e-05,5.272746933242673e-05,5.279835104411015e-05,5.273566662080792e-05,5.251362593468331e-05,5.2054952849401425e-05,5.146936064825558e-05,5.07916351635198e-05,5.006116145493454e-05,4.9318123815362976e-05,4.853239055586973e-05,4.781839566138682e-05,4.718919016329735e-05,4.663382852397802e-05,4.6122621696042645e-05,4.555501474047106e-05,4.497319480087841e-05,0.0,0.0,0.0,0.0,0.0,0.0,0.0,0.0,0.0,0.0,0.0,0.0,0.0,0.0,0.0,0.0,0.0,0.0,0.0,0.0,0.0,0.0,0.0,0.0,0.0,0.0,0.0,0.0,0.0,0.0,0.0,0.0,0.0,0.0,0.0,0.0,0.0,0.0,0.0,0.0,0.0,0.0,0.0,0.0,0.0,0.0,0.0,0.0,0.0,0.0,0.0,0.0,0.0,0.0,0.0,0.0,0.0,0.0,0.0,0.0,0.0,0.0,0.0,0.0,0.0,0.0,0.0,0.0,0.0,0.0,0.0,0.0,0.0,0.0,0.0,0.0,0.0,0.0,0.0,0.0,0.0,0.0,0.0,0.0,0.0,0.0,0.0,0.0,0.0,0.0,0.0,0.0,0.0,0.0,0.0,0.0,0.0,0.0,0.0,0.0,0.0,0.0,0.0,0.0,0.0,0.0,0.0,0.0,0.0,0.0,0.0,0.0,0.0,0.0,0.0,0.0,0.0,0.0,0.0,0.0,0.0,0.0,0.0,0.0,0.0,0.0,0.0,0.0,0.0,0.0,0.0,0.0,0.0,0.0,0.0,0.0,0.0,0.0,0.0,0.0,0.0,0.0,0.0,0.0,0.0,0.0,0.0,0.0,0.0,0.0,0.0,0.0,0.0,0.0,0.0,0.0,0.0,0.0,0.0,0.0,0.0,0.0,0.0,0.0,0.0,0.0,0.0,0.0,0.0,0.0,0.0,0.0,0.0,0.0,0.0,0.0,0.0,0.0,0.0,0.0,0.0,0.0,0.0,0.0,0.0,0.0,0.0,0.0,0.0,0.0,0.0,0.0,0.0,0.0,0.0,0.0,0.0,0.0,0.0,0.0,0.0,0.0,0.0,0.0,0.0,0.0,0.0,0.0,0.0,0.0,0.0,0.0,0.0,0.0,0.0,0.0,0.0,0.0,0.0,0.0,0.0,0.0,0.0,0.0,0.0,0.0,0.0,0.0,0.0,0.0,0.0,0.0,0.0,0.0,0.0,0.0,0.0,0.0,0.0
0.13843674877919301,0.13994628883488344,0.14208097383870916,0.14469463180769176,0.14735831819013395,0.1494309556292989,0.1501737645810562,0.1489143913729725,0.14514207722567954,0.13882341706389734,0.13026433861509565,0.12011087688779337,0.10922503332103077,0.09846378216023668,0.08868481273897381,0.08046997887293386,0.07409664450003377,0.06953567526908906,0.06646415874975607,0.06450590369749129,0.06322234516538806,0.06223356963760269,0.06126756165313335,0.06011021105416899,0.05875859238815433,0.057173621764775126,0.05529252813213734,0.05299944803717765,0.05006377310241484,0.04640548783729661,0.04188765678095414,0.0364902341010529,0.03038169464312555,0.02385596884180162,0.01763712044053695,0.012439605768572833,0.00896432442732414,0.007763941249073447,0.008995745973388399,0.012775662156606176,0.018725821570718615,0.02617956460750351,0.034301651426396206,0.04208560606291609,0.048987011167656046,0.05451720961337597,0.05845484044797405,0.060839361603718965,0.061744732475285106,0.06175296336064216,0.061285250108749946,0.060702060245925234,0.060249709170481267,0.05985647468324621,0.05972832358011384,0.059768343893809014,0.05980864779125352,0.05966005673724358,0.058969834611613724,0.05788320404775504,0.056426530654486474,0.0,0.0,0.0,0.0,0.0,0.0,0.0,0.0,0.0,0.0,0.0,0.0,0.0,0.0,0.0,0.0,0.0,0.0,0.0,0.0,0.0,0.0,0.0,0.0,0.0,0.0,0.0,0.0,0.0,0.0,0.0,0.0,0.0,0.0,0.0,0.0,0.0,0.0,0.0,0.0,0.0,0.0,0.0,0.0,0.0,0.0,0.0,0.0,0.0,0.0,0.0,0.0,0.0,0.0,0.0,0.0,0.0,0.0,0.0,0.0,0.0,0.0,0.0,0.0,0.0,0.0,0.0,0.0,0.0,0.0,0.0,0.0,0.0,0.0,0.0,0.0,0.0,0.0,0.0,0.0,0.0,0.0,0.0,0.0,0.0,0.0,0.0,0.0,0.0,0.0,0.0,0.0,0.0,0.0,0.0,0.0,0.0,0.0,0.0,0.0,0.0,0.0,0.0,0.0,0.0,0.0,0.0,0.0,0.0,0.0,0.0,0.0,0.0,0.0,0.0,0.0,0.0,0.0,0.0,0.0,0.0,0.0,0.0,0.0,0.0,0.0,0.0,0.0,0.0,0.0,0.0,0.0,0.0,0.0,0.0,0.0,0.0,0.0,0.0,0.0,0.0,0.0,0.0,0.0,0.0,0.0,0.0,0.0,0.0,0.0,0.0,0.0,0.0,0.0,0.0,0.0,0.0,0.0,0.0,0.0,0.0,0.0,0.0,0.0,0.0,0.0,0.0,0.0,0.0,0.0,0.0,0.0,0.0,0.0,0.0,0.0,0.0,0.0,0.0,0.0,0.0,0.0,0.0,0.0,0.0,0.0,0.0,0.0,0.0,0.0,0.0,0.0,0.0,0.0,0.0,0.0,0.0,0.0,0.0,0.0,0.0,0.0,0.0,0.0,0.0,0.0,0.0,0.0,0.0,0.0,0.0,0.0,0.0,0.0,0.0,0.0,0.0,0.0,0.0,0.0,0.0,0.0,0.0,0.0,0.0,0.0,0.0,0.0,0.0,0.0,0.0,0.0,0.0,0.0,0.0,0.0,0.0,0.0,0.0,5.07916351635198e-05,5.006116145493454e-05,4.9318123815362976e-05,4.853239055586973e-05,4.781839566138682e-05,4.718919016329735e-05,4.663382852397802e-05,4.6122621696042645e-05,4.555501474047106e-05,4.497319480087841e-05,4.4349128762883655e-05,4.3666850482499806e-05,4.293064915437469e-05,4.210668777685487e-05,4.1324302027728944e-05,4.064025420076671e-05,4.0101845957713705e-05,3.973867661270673e-05,3.9495653848251896e-05,3.943848231642459e-05,3.9527641917143893e-05,3.970365372945288e-05,3.9902607642202185e-05,4.001019762634019e-05,4.007724433246826e-05,4.009885648141518e-05,4.0087014058215805e-05,4.006653867169764e-05,4.000677343050485e-05,4.00148271569659e-05,4.0106592254354376e-05,4.0274972304881696e-05,4.049318502660262e-05,4.0662678282262745e-05,4.081932490417134e-05,4.092968052625884e-05,4.0967407110683173e-05,4.0919831381507596e-05,4.073244231220207e-05,4.049863428149082e-05,4.024962024182686e-05,4.0012632323380745e-05,3.98049972282362e-05,3.956997897329742e-05,3.937127798235534e-05,3.918562999063863e-05,3.8973914188478297e-05,3.86901630749648e-05,3.8230951554481794e-05,3.764722039433357e-05,3.6939733453427936e-05,3.613018618771654e-05,3.526082434316441e-05,3.4331956887229427e-05,3.347793085202305e-05,3.275765524955284e-05,3.220659710045001e-05,3.183148561136402e-05,3.155900172121958e-05,3.141330135224606e-05,3.1344904671840265e-05,0.0,0.0,0.0,0.0,0.0,0.0,0.0,0.0,0.0,0.0,0.0,0.0,0.0,0.0,0.0,0.0,0.0,0.0,0.0,0.0,0.0,0.0,0.0,0.0,0.0,0.0,0.0,0.0,0.0,0.0,0.0,0.0,0.0,0.0,0.0,0.0,0.0,0.0,0.0,0.0,0.0,0.0,0.0,0.0,0.0,0.0,0.0,0.0,0.0,0.0,0.0,0.0,0.0,0.0,0.0,0.0,0.0,0.0,0.0,0.0,0.0,0.0,0.0,0.0,0.0,0.0,0.0,0.0,0.0,0.0,0.0,0.0,0.0,0.0,0.0,0.0,0.0,0.0,0.0,0.0,0.0,0.0,0.0,0.0,0.0,0.0,0.0,0.0,0.0,0.0,0.0,0.0,0.0,0.0,0.0,0.0,0.0,0.0,0.0,0.0,0.0,0.0,0.0,0.0,0.0,0.0,0.0,0.0,0.0,0.0,0.0,0.0,0.0,0.0,0.0,0.0,0.0,0.0,0.0,0.0,0.0,0.0,0.0,0.0,0.0,0.0,0.0,0.0,0.0,0.0,0.0,0.0,0.0,0.0,0.0,0.0,0.0,0.0,0.0,0.0,0.0,0.0,0.0,0.0,0.0,0.0,0.0,0.0,0.0,0.0,0.0,0.0,0.0,0.0,0.0,0.0,0.0,0.0,0.0,0.0,0.0,0.0,0.0,0.0,0.0,0.0,0.0,0.0,0.0,0.0,0.0,0.0,0.0,0.0,0.0,0.0,0.0,0.0,0.0,0.0,0.0,0.0,0.0,0.0,0.0,0.0,0.0,0.0,0.0,0.0,0.0,0.0,0.0,0.0,0.0,0.0,0.0,0.0,0.0,0.0,0.0,0.0,0.0,0.0,0.0,0.0,0.0,0.0,0.0,0.0,0.0,0.0,0.0,0.0,0.0,0.0,0.0,0.0,0.0,0.0,0.0,0.0,0.0,0.0,0.0,0.0,0.0,0.0,0.0,0.0,0.0,0.0,0.0,0.0,0.0,0.0,0.0,0.0,0.0
0.060702060245925234,0.060249709170481267,0.05985647468324621,0.05972832358011384,0.059768343893809014,0.05980864779125352,0.05966005673724358,0.058969834611613724,0.05788320404775504,0.056426530654486474,0.05470791788763432,0.05289476969937425,0.05102852499927301,0.04942355707852395,0.048143280947394805,0.04711416041714589,0.046129482661504906,0.04480256597356989,0.04293322945178273,0.040299743608140606,0.03683789049144143,0.03269840519784049,0.02815614482024513,0.02389203866432888,0.02058516248711466,0.018882301997755094,0.019267327734176064,0.021842448434343156,0.026633571713360518,0.03326839572833212,0.041140042524766156,0.04951684362615141,0.05758845700445607,0.06485261962685382,0.07097390893753361,0.07588598578263728,0.07976635951812674,0.08290441189351185,0.085758432952449,0.0887070552824566,0.09198822369159337,0.09564404072562069,0.09943218246928262,0.1031652116334057,0.10655193195834521,0.1093667058941558,0.11152172193311465,0.11296918811909995,0.11407575474499171,0.1151797802511289,0.11659268815629967,0.11848595415836852,0.12068847111705647,0.12302677588156052,0.1250096353924716,0.1260215722226254,0.12545018638362238,0.12271438199278616,0.11772410164471998,0.11061863981380299,0.1018651825870241,0.0,0.0,0.0,0.0,0.0,0.0,0.0,0.0,0.0,0.0,0.0,0.0,0.0,0.0,0.0,0.0,0.0,0.0,0.0,0.0,0.0,0.0,0.0,0.0,0.0,0.0,0.0,0.0,0.0,0.0,0.0,0.0,0.0,0.0,0.0,0.0,0.0,0.0,0.0,0.0,0.0,0.0,0.0,0.0,0.0,0.0,0.0,0.0,0.0,0.0,0.0,0.0,0.0,0.0,0.0,0.0,0.0,0.0,0.0,0.0,0.0,0.0,0.0,0.0,0.0,0.0,0.0,0.0,0.0,0.0,0.0,0.0,0.0,0.0,0.0,0.0,0.0,0.0,0.0,0.0,0.0,0.0,0.0,0.0,0.0,0.0,0.0,0.0,0.0,0.0,0.0,0.0,0.0,0.0,0.0,0.0,0.0,0.0,0.0,0.0,0.0,0.0,0.0,0.0,0.0,0.0,0.0,0.0,0.0,0.0,0.0,0.0,0.0,0.0,0.0,0.0,0.0,0.0,0.0,0.0,0.0,0.0,0.0,0.0,0.0,0.0,0.0,0.0,0.0,0.0,0.0,0.0,0.0,0.0,0.0,0.0,0.0,0.0,0.0,0.0,0.0,0.0,0.0,0.0,0.0,0.0,0.0,0.0,0.0,0.0,0.0,0.0,0.0,0.0,0.0,0.0,0.0,0.0,0.0,0.0,0.0,0.0,0.0,0.0,0.0,0.0,0.0,0.0,0.0,0.0,0.0,0.0,0.0,0.0,0.0,0.0,0.0,0.0,0.0,0.0,0.0,0.0,0.0,0.0,0.0,0.0,0.0,0.0,0.0,0.0,0.0,0.0,0.0,0.0,0.0,0.0,0.0,0.0,0.0,0.0,0.0,0.0,0.0,0.0,0.0,0.0,0.0,0.0,0.0,0.0,0.0,0.0,0.0,0.0,0.0,0.0,0.0,0.0,0.0,0.0,0.0,0.0,0.0,0.0,0.0,0.0,0.0,0.0,0.0,0.0,0.0,0.0,0.0,0.0,0.0,0.0,0.0,0.0,0.0,3.613018618771654e-05,3.526082434316441e-05,3.4331956887229427e-05,3.347793085202305e-05,3.275765524955284e-05,3.220659710045001e-05,3.183148561136402e-05,3.155900172121958e-05,3.141330135224606e-05,3.1344904671840265e-05,3.130209393958348e-05,3.124434736644186e-05,3.110324485603187e-05,3.094464700232445e-05,3.0795464615140475e-05,3.068934757288809e-05,3.0657209121519704e-05,3.0673701813147814e-05,3.079905645842664e-05,3.102103841545754e-05,3.13091276873963e-05,3.1623433957595565e-05,3.187821691888591e-05,3.210477336222229e-05,3.2294724140127215e-05,3.24519527973318e-05,3.258965879367143e-05,3.267550333117839e-05,3.278518732218705e-05,3.2930147376197426e-05,3.310794629445509e-05,3.330469563043642e-05,3.345531712699955e-05,3.3601260177543415e-05,3.3738022528126996e-05,3.387139203787724e-05,3.401973246720141e-05,3.416924489275312e-05,3.4406595030365586e-05,3.47561462690768e-05,3.521992225045258e-05,3.577277093863488e-05,3.6321593834009215e-05,3.684874631208134e-05,3.727442374017021e-05,3.7520188920567714e-05,3.752580941006835e-05,3.722225015803087e-05,3.6672523970776514e-05,3.5924519684270135e-05,3.5049446602490174e-05,3.412921714543333e-05,3.3205849052422775e-05,3.238712152804919e-05,3.170682584284303e-05,3.116479761560061e-05,3.0732624880798306e-05,3.033321942592325e-05,2.995820329093941e-05,2.9565090321851122e-05,2.9125300904714394e-05,0.0,0.0,0.0,0.0,0.0,0.0,0.0,0.0,0.0,0.0,0.0,0.0,0.0,0.0,0.0,0.0,0.0,0.0,0.0,0.0,0.0,0.0,0.0,0.0,0.0,0.0,0.0,0.0,0.0,0.0,0.0,0.0,0.0,0.0,0.0,0.0,0.0,0.0,0.0,0.0,0.0,0.0,0.0,0.0,0.0,0.0,0.0,0.0,0.0,0.0,0.0,0.0,0.0,0.0,0.0,0.0,0.0,0.0,0.0,0.0,0.0,0.0,0.0,0.0,0.0,0.0,0.0,0.0,0.0,0.0,0.0,0.0,0.0,0.0,0.0,0.0,0.0,0.0,0.0,0.0,0.0,0.0,0.0,0.0,0.0,0.0,0.0,0.0,0.0,0.0,0.0,0.0,0.0,0.0,0.0,0.0,0.0,0.0,0.0,0.0,0.0,0.0,0.0,0.0,0.0,0.0,0.0,0.0,0.0,0.0,0.0,0.0,0.0,0.0,0.0,0.0,0.0,0.0,0.0,0.0,0.0,0.0,0.0,0.0,0.0,0.0,0.0,0.0,0.0,0.0,0.0,0.0,0.0,0.0,0.0,0.0,0.0,0.0,0.0,0.0,0.0,0.0,0.0,0.0,0.0,0.0,0.0,0.0,0.0,0.0,0.0,0.0,0.0,0.0,0.0,0.0,0.0,0.0,0.0,0.0,0.0,0.0,0.0,0.0,0.0,0.0,0.0,0.0,0.0,0.0,0.0,0.0,0.0,0.0,0.0,0.0,0.0,0.0,0.0,0.0,0.0,0.0,0.0,0.0,0.0,0.0,0.0,0.0,0.0,0.0,0.0,0.0,0.0,0.0,0.0,0.0,0.0,0.0,0.0,0.0,0.0,0.0,0.0,0.0,0.0,0.0,0.0,0.0,0.0,0.0,0.0,0.0,0.0,0.0,0.0,0.0,0.0,0.0,0.0,0.0,0.0,0.0,0.0,0.0,0.0,0.0,0.0,0.0,0.0,0.0,0.0,0.0,0.0,0.0,0.0,0.0,0.0,0.0,0.0
0.11848595415836852,0.12068847111705647,0.12302677588156052,0.1250096353924716,0.1260215722226254,0.12545018638362238,0.12271438199278616,0.11772410164471998,0.11061863981380299,0.1018651825870241,0.0921946718223653,0.08238705631234523,0.07345859741619773,0.06622482214447292,0.06128202376659112,0.05893915726110824,0.05910211853841202,0.061600864175633124,0.06596735073478985,0.07159144629388378,0.07779595841855635,0.08380448189265012,0.08910597316661223,0.09322336117042325,0.09580958742923243,0.09665275957600448,0.09557164317794387,0.09273187168570216,0.08838297329820252,0.08291518229234758,0.07683148755006207,0.07063860324564605,0.0650234944736558,0.06057224406830861,0.05778275402372843,0.05701021552411965,0.05838597238925897,0.061920702146469275,0.06730745021599459,0.07402303996373076,0.08139658906188652,0.08861640373223638,0.09511955697801834,0.1003542427812054,0.1039557624440215,0.10578296259965336,0.10578055068872905,0.10438780233656492,0.10201170927863278,0.09909852884408543,0.09606385134607098,0.09313725334833801,0.0906735460903389,0.088755055022302,0.08734738946100767,0.08634474009248859,0.08555188319680848,0.08495984944379459,0.08444400721200858,0.08389760606223744,0.08325161285724998,0.0,0.0,0.0,0.0,0.0,0.0,0.0,0.0,0.0,0.0,0.0,0.0,0.0,0.0,0.0,0.0,0.0,0.0,0.0,0.0,0.0,0.0,0.0,0.0,0.0,0.0,0.0,0.0,0.0,0.0,0.0,0.0,0.0,0.0,0.0,0.0,0.0,0.0,0.0,0.0,0.0,0.0,0.0,0.0,0.0,0.0,0.0,0.0,0.0,0.0,0.0,0.0,0.0,0.0,0.0,0.0,0.0,0.0,0.0,0.0,0.0,0.0,0.0,0.0,0.0,0.0,0.0,0.0,0.0,0.0,0.0,0.0,0.0,0.0,0.0,0.0,0.0,0.0,0.0,0.0,0.0,0.0,0.0,0.0,0.0,0.0,0.0,0.0,0.0,0.0,0.0,0.0,0.0,0.0,0.0,0.0,0.0,0.0,0.0,0.0,0.0,0.0,0.0,0.0,0.0,0.0,0.0,0.0,0.0,0.0,0.0,0.0,0.0,0.0,0.0,0.0,0.0,0.0,0.0,0.0,0.0,0.0,0.0,0.0,0.0,0.0,0.0,0.0,0.0,0.0,0.0,0.0,0.0,0.0,0.0,0.0,0.0,0.0,0.0,0.0,0.0,0.0,0.0,0.0,0.0,0.0,0.0,0.0,0.0,0.0,0.0,0.0,0.0,0.0,0.0,0.0,0.0,0.0,0.0,0.0,0.0,0.0,0.0,0.0,0.0,0.0,0.0,0.0,0.0,0.0,0.0,0.0,0.0,0.0,0.0,0.0,0.0,0.0,0.0,0.0,0.0,0.0,0.0,0.0,0.0,0.0,0.0,0.0,0.0,0.0,0.0,0.0,0.0,0.0,0.0,0.0,0.0,0.0,0.0,0.0,0.0,0.0,0.0,0.0,0.0,0.0,0.0,0.0,0.0,0.0,0.0,0.0,0.0,0.0,0.0,0.0,0.0,0.0,0.0,0.0,0.0,0.0,0.0,0.0,0.0,0.0,0.0,0.0,0.0,0.0,0.0,0.0,0.0,0.0,0.0,0.0,0.0,0.0,0.0,3.412921714543333e-05,3.3205849052422775e-05,3.238712152804919e-05,3.170682584284303e-05,3.116479761560061e-05,3.0732624880798306e-05,3.033321942592325e-05,2.995820329093941e-05,2.9565090321851122e-05,2.9125300904714394e-05,2.863178296427817e-05,2.8071907844066333e-05,2.7525913243912508e-05,2.7049038467940182e-05,2.669969660430809e-05,2.6530941047758034e-05,2.655295973303658e-05,2.6821667241333972e-05,2.7324824065456973e-05,2.8016079029580634e-05,2.8819513027835783e-05,2.9606669267944545e-05,3.031652070291642e-05,3.0852311522691326e-05,3.113351988158045e-05,3.110808500791354e-05,3.072426465394747e-05,3.005034770384358e-05,2.914384831215865e-05,2.808328204879483e-05,2.6957468257761006e-05,2.5823425653671686e-05,2.47990961846214e-05,2.3939908341596298e-05,2.3274367731745788e-05,2.280685150760848e-05,2.2497620993469454e-05,2.2357225421463606e-05,2.2346823148292176e-05,2.242004164796605e-05,2.252948391782573e-05,2.260239899316695e-05,2.264313935519367e-05,2.261800631602607e-05,2.2495917282113646e-05,2.225211632804298e-05,2.1839415626159583e-05,2.130315752999425e-05,2.065658540495211e-05,1.9924572256338132e-05,1.9144356735707528e-05,1.8336034429282567e-05,1.7588937743709224e-05,1.694451073535736e-05,1.6426156803622063e-05,1.603659714337207e-05,1.5737858672682042e-05,1.5529539958671213e-05,1.5366140619109478e-05,1.5200208188995716e-05,1.4996581961902729e-05,0.0,0.0,0.0,0.0,0.0,0.0,0.0,0.0,0.0,0.0,0.0,0.0,0.0,0.0,0.0,0.0,0.0,0.0,0.0,0.0,0.0,0.0,0.0,0.0,0.0,0.0,0.0,0.0,0.0,0.0,0.0,0.0,0.0,0.0,0.0,0.0,0.0,0.0,0.0,0.0,0.0,0.0,0.0,0.0,0.0,0.0,0.0,0.0,0.0,0.0,0.0,0.0,0.0,0.0,0.0,0.0,0.0,0.0,0.0,0.0,0.0,0.0,0.0,0.0,0.0,0.0,0.0,0.0,0.0,0.0,0.0,0.0,0.0,0.0,0.0,0.0,0.0,0.0,0.0,0.0,0.0,0.0,0.0,0.0,0.0,0.0,0.0,0.0,0.0,0.0,0.0,0.0,0.0,0.0,0.0,0.0,0.0,0.0,0.0,0.0,0.0,0.0,0.0,0.0,0.0,0.0,0.0,0.0,0.0,0.0,0.0,0.0,0.0,0.0,0.0,0.0,0.0,0.0,0.0,0.0,0.0,0.0,0.0,0.0,0.0,0.0,0.0,0.0,0.0,0.0,0.0,0.0,0.0,0.0,0.0,0.0,0.0,0.0,0.0,0.0,0.0,0.0,0.0,0.0,0.0,0.0,0.0,0.0,0.0,0.0,0.0,0.0,0.0,0.0,0.0,0.0,0.0,0.0,0.0,0.0,0.0,0.0,0.0,0.0,0.0,0.0,0.0,0.0,0.0,0.0,0.0,0.0,0.0,0.0,0.0,0.0,0.0,0.0,0.0,0.0,0.0,0.0,0.0,0.0,0.0,0.0,0.0,0.0,0.0,0.0,0.0,0.0,0.0,0.0,0.0,0.0,0.0,0.0,0.0,0.0,0.0,0.0,0.0,0.0,0.0,0.0,0.0,0.0,0.0,0.0,0.0,0.0,0.0,0.0,0.0,0.0,0.0,0.0,0.0,0.0,0.0,0.0,0.0,0.0,0.0,0.0,0.0,0.0,0.0,0.0,0.0,0.0,0.0,0.0,0.0,0.0,0.0,0.0,0.0
0.09313725334833801,0.0906735460903389,0.088755055022302,0.08734738946100767,0.08634474009248859,0.08555188319680848,0.08495984944379459,0.08444400721200858,0.08389760606223744,0.08325161285724998,0.08245265215462448,0.08162356454928646,0.08085547630912586,0.0802970589616179,0.08015848562201139,0.08068200144731348,0.0821531955309494,0.08472255629853626,0.08837782762937549,0.0928893283343646,0.09774506482002904,0.10232355435450147,0.1057593487549143,0.10713290863611222,0.10562017104671781,0.1005734208843321,0.09189580790223295,0.07982140254563652,0.06503455304672048,0.0486252381744149,0.03191420175951221,0.016521616993308924,0.003922224237654077,-0.00465270759078537,-0.008369694697887998,-0.0069618295940170145,-0.0005684204555093382,0.010066133339844748,0.02374930621212184,0.03898077002720845,0.05403608214607903,0.06745386213843685,0.07788928416594366,0.08435792802392998,0.0863312347523049,0.08365548379028702,0.07692833895399233,0.06700368686501745,0.055005159841123405,0.04217602075349897,0.029628534677007472,0.018477670256128925,0.009387835280075708,0.0026161568769544896,-0.001979193245306955,-0.004912795615640833,-0.006754018290623253,-0.008202462622085242,-0.009838899315738866,-0.011990399943264028,-0.014716554405801488,0.0,0.0,0.0,0.0,0.0,0.0,0.0,0.0,0.0,0.0,0.0,0.0,0.0,0.0,0.0,0.0,0.0,0.0,0.0,0.0,0.0,0.0,0.0,0.0,0.0,0.0,0.0,0.0,0.0,0.0,0.0,0.0,0.0,0.0,0.0,0.0,0.0,0.0,0.0,0.0,0.0,0.0,0.0,0.0,0.0,0.0,0.0,0.0,0.0,0.0,0.0,0.0,0.0,0.0,0.0,0.0,0.0,0.0,0.0,0.0,0.0,0.0,0.0,0.0,0.0,0.0,0.0,0.0,0.0,0.0,0.0,0.0,0.0,0.0,0.0,0.0,0.0,0.0,0.0,0.0,0.0,0.0,0.0,0.0,0.0,0.0,0.0,0.0,0.0,0.0,0.0,0.0,0.0,0.0,0.0,0.0,0.0,0.0,0.0,0.0,0.0,0.0,0.0,0.0,0.0,0.0,0.0,0.0,0.0,0.0,0.0,0.0,0.0,0.0,0.0,0.0,0.0,0.0,0.0,0.0,0.0,0.0,0.0,0.0,0.0,0.0,0.0,0.0,0.0,0.0,0.0,0.0,0.0,0.0,0.0,0.0,0.0,0.0,0.0,0.0,0.0,0.0,0.0,0.0,0.0,0.0,0.0,0.0,0.0,0.0,0.0,0.0,0.0,0.0,0.0,0.0,0.0,0.0,0.0,0.0,0.0,0.0,0.0,0.0,0.0,0.0,0.0,0.0,0.0,0.0,0.0,0.0,0.0,0.0,0.0,0.0,0.0,0.0,0.0,0.0,0.0,0.0,0.0,0.0,0.0,0.0,0.0,0.0,0.0,0.0,0.0,0.0,0.0,0.0,0.0,0.0,0.0,0.0,0.0,0.0,0.0,0.0,0.0,0.0,0.0,0.0,0.0,0.0,0.0,0.0,0.0,0.0,0.0,0.0,0.0,0.0,0.0,0.0,0.0,0.0,0.0,0.0,0.0,0.0,0.0,0.0,0.0,0.0,0.0,0.0,0.0,0.0,0.0,0.0,0.0,0.0,0.0,0.0,0.0,1.8336034429282567e-05,1.7588937743709224e-05,1.694451073535736e-05,1.6426156803622063e-05,1.603659714337207e-05,1.5737858672682042e-05,1.5529539958671213e-05,1.5366140619109478e-05,1.5200208188995716e-05,1.4996581961902729e-05,1.4727111606241869e-05,1.4438461924316503e-05,1.4172662121110018e-05,1.3989328997180892e-05,1.3956566780433386e-05,1.412486723373115e-05,1.4561773371626672e-05,1.527162595140627e-05,1.621355315022063e-05,1.7304207174726744e-05,1.8414726698614614e-05,1.943589021211316e-05,2.022674908267358e-05,2.0661748311172146e-05,2.0651847569020105e-05,2.0146838394240236e-05,1.919191769683642e-05,1.7852142519264075e-05,1.6231860131751045e-05,1.446445332327082e-05,1.2684580421268163e-05,1.1065877850289695e-05,9.735360197219628e-06,8.787290247892592e-06,8.27705907752154e-06,8.202730710576657e-06,8.561110915685812e-06,9.282947676375049e-06,1.026362606315196e-05,1.137483984057824e-05,1.2462377960579601e-05,1.3417566359342795e-05,1.4123344924610033e-05,1.4491216373974258e-05,1.4472620603634937e-05,1.4048532381473484e-05,1.3286276341323698e-05,1.2263406741217272e-05,1.1078961073605618e-05,9.838991648990428e-06,8.630140676883645e-06,7.54455929284435e-06,6.618862573676409e-06,5.850588444000359e-06,5.205362694345917e-06,4.625147771618707e-06,4.065208439824675e-06,3.47571784547002e-06,2.82776742124711e-06,2.1211917156409776e-06,1.379978941413875e-06,0.0,0.0,0.0,0.0,0.0,0.0,0.0,0.0,0.0,0.0,0.0,0.0,0.0,0.0,0.0,0.0,0.0,0.0,0.0,0.0,0.0,0.0,0.0,0.0,0.0,0.0,0.0,0.0,0.0,0.0,0.0,0.0,0.0,0.0,0.0,0.0,0.0,0.0,0.0,0.0,0.0,0.0,0.0,0.0,0.0,0.0,0.0,0.0,0.0,0.0,0.0,0.0,0.0,0.0,0.0,0.0,0.0,0.0,0.0,0.0,0.0,0.0,0.0,0.0,0.0,0.0,0.0,0.0,0.0,0.0,0.0,0.0,0.0,0.0,0.0,0.0,0.0,0.0,0.0,0.0,0.0,0.0,0.0,0.0,0.0,0.0,0.0,0.0,0.0,0.0,0.0,0.0,0.0,0.0,0.0,0.0,0.0,0.0,0.0,0.0,0.0,0.0,0.0,0.0,0.0,0.0,0.0,0.0,0.0,0.0,0.0,0.0,0.0,0.0,0.0,0.0,0.0,0.0,0.0,0.0,0.0,0.0,0.0,0.0,0.0,0.0,0.0,0.0,0.0,0.0,0.0,0.0,0.0,0.0,0.0,0.0,0.0,0.0,0.0,0.0,0.0,0.0,0.0,0.0,0.0,0.0,0.0,0.0,0.0,0.0,0.0,0.0,0.0,0.0,0.0,0.0,0.0,0.0,0.0,0.0,0.0,0.0,0.0,0.0,0.0,0.0,0.0,0.0,0.0,0.0,0.0,0.0,0.0,0.0,0.0,0.0,0.0,0.0,0.0,0.0,0.0,0.0,0.0,0.0,0.0,0.0,0.0,0.0,0.0,0.0,0.0,0.0,0.0,0.0,0.0,0.0,0.0,0.0,0.0,0.0,0.0,0.0,0.0,0.0,0.0,0.0,0.0,0.0,0.0,0.0,0.0,0.0,0.0,0.0,0.0,0.0,0.0,0.0,0.0,0.0,0.0,0.0,0.0,0.0,0.0,0.0,0.0,0.0,0.0,0.0,0.0,0.0,0.0,0.0,0.0,0.0,0.0,0.0,0.0
