0.5232385438285759,0.5448925945338284,0.5484671357616822,0.5320036499975053,0.4961479637857807,0.44400970272437007,0.38069653070145393,0.31245485140434015,0.2456838912014829,0.18588826545288673,0.13687609185261213,0.10044695232874497,0.07644256704699813,0.06318004868735833,0.057946772723326406,0.057614394481891956,0.05928301328933798,0.06072857275973965,0.0606417047005101,0.05862961314445471,0.054914254201439444,0.05012401561096154,0.04501457847248117,0.04021477675724559,0.0361831746501868,0.03296265336585946,0.03032182495220203,0.027887268618832693,0.0252345240982426,0.022222022054840817,0.01875237479313494,0.014878701887636039,0.010759958765184225,0.006496604901918269,0.0023919356732581454,-0.001480581870630584,-0.005144143047605099,-0.008683507300000323,-0.012335340356757596,-0.015988498424967277,-0.0197454945707891,-0.02373740022512868,-0.02812697336518487,-0.033271657207090764,-0.03907563167994614,-0.04566692297832928,-0.05305832173727209,-0.06106792292518242,-0.06955513949770775,-0.07754067597809139,-0.08448106467644734,-0.09000487562991191,-0.09400887248517995,-0.09704262086969599,-0.09900686041763652,-0.10058146256924479,-0.10245386448306978,-0.10505840937464833,-0.10862380646345798,-0.11233130293441397,-0.11538484042851961,0.0,0.0,0.0,0.0,0.0,0.0,0.0,0.0,0.0,0.0,0.0,0.0,0.0,0.0,0.0,0.0,0.0,0.0,0.0,0.0,0.0,0.0,0.0,0.0,0.0,0.0,0.0,0.0,0.0,0.0,0.0,0.0,0.0,0.0,0.0,0.0,0.0,0.0,0.0,0.0,0.0,0.0,0.0,0.0,0.0,0.0,0.0,0.0,0.0,0.0,0.0,0.0,0.0,0.0,0.0,0.0,0.0,0.0,0.0,0.0,0.0,0.0,0.0,0.0,0.0,0.0,0.0,0.0,0.0,0.0,0.0,0.0,0.0,0.0,0.0,0.0,0.0,0.0,0.0,0.0,0.0,0.0,0.0,0.0,0.0,0.0,0.0,0.0,0.0,0.0,0.0,0.0,0.0,0.0,0.0,0.0,0.0,0.0,0.0,0.0,0.0,0.0,0.0,0.0,0.0,0.0,0.0,0.0,0.0,0.0,0.0,0.0,0.0,0.0,0.0,0.0,0.0,0.0,0.0,0.0,0.0,0.0,0.0,0.0,0.0,0.0,0.0,0.0,0.0,0.0,0.0,0.0,0.0,0.0,0.0,0.0,0.0,0.0,0.0,0.0,0.0,0.0,0.0,0.0,0.0,0.0,0.0,0.0,0.0,0.0,0.0,0.0,0.0,0.0,0.0,0.0,0.0,0.0,0.0,0.0,0.0,0.0,0.0,0.0,0.0,0.0,0.0,0.0,0.0,0.0,0.0,0.0,0.0,0.0,0.0,0.0,0.0,0.0,0.0,0.0,0.0,0.0,0.0,0.0,0.0,0.0,0.0,0.0,0.0,0.0,0.0,0.0,0.0,0.0,0.0,0.0,0.0,0.0,0.0,0.0,0.0,0.0,0.0,0.0,0.0,0.0,0.0,0.0,0.0,0.0,0.0,0.0,0.0,0.0,0.0,0.0,0.0,0.0,0.0,0.0,0.0,0.0,0.0,0.0,0.0,0.0,0.0,0.0,0.0,0.0,0.0,0.0,0.0,0.0,0.0,0.0,0.0,0.0,0.0,-0.15122284483150594,-0.15787980446903624,-0.1572486996588708,-0.1484813370717088,-0.1314304139270879,-0.10736033526765514,-0.07850056856573795,-0.04761357380947183,-0.017716910565054592,0.00914149291201966,0.03154732547560414,0.04904008419983607,0.06202155203992716,0.07127444595113153,0.07833009331010696,0.0844869254298676,0.090732056394808,0.09759098701358301,0.10491542417729012,0.11259786785866492,0.12016626176660627,0.12713661143095245,0.13316042198723888,0.13794171183602455,0.14176860890808204,0.14494765157327985,0.14785121642176832,0.15080601337970612,0.15386255406219437,0.1572352734643926,0.16086991913487816,0.16464575628515676,0.16845160477217333,0.1721138167781266,0.17583030571618416,0.17972951537721998,0.1839270654959194,0.18844935886240738,0.19309482578760964,0.1976930854776233,0.20194970009615834,0.20558931195221627,0.20844711295264146,0.21048659874194262,0.21190861390665652,0.21307879785427358,0.21438570151298134,0.2160913988428751,0.21819581970791618,0.220422023230523,0.22237788340654216,0.22361027142258058,0.22373568473310873,0.22255453416731588,0.22004822428270177,0.21658268100944125,0.21269239459611283,0.20890259111798146,0.205503980561537,0.20259089295008115,0.19998697440333987,0.0,0.0,0.0,0.0,0.0,0.0,0.0,0.0,0.0,0.0,0.0,0.0,0.0,0.0,0.0,0.0,0.0,0.0,0.0,0.0,0.0,0.0,0.0,0.0,0.0,0.0,0.0,0.0,0.0,0.0,0.0,0.0,0.0,0.0,0.0,0.0,0.0,0.0,0.0,0.0,0.0,0.0,0.0,0.0,0.0,0.0,0.0,0.0,0.0,0.0,0.0,0.0,0.0,0.0,0.0,0.0,0.0,0.0,0.0,0.0,0.0,0.0,0.0,0.0,0.0,0.0,0.0,0.0,0.0,0.0,0.0,0.0,0.0,0.0,0.0,0.0,0.0,0.0,0.0,0.0,0.0,0.0,0.0,0.0,0.0,0.0,0.0,0.0,0.0,0.0,0.0,0.0,0.0,0.0,0.0,0.0,0.0,0.0,0.0,0.0,0.0,0.0,0.0,0.0,0.0,0.0,0.0,0.0,0.0,0.0,0.0,0.0,0.0,0.0,0.0,0.0,0.0,0.0,0.0,0.0,0.0,0.0,0.0,0.0,0.0,0.0,0.0,0.0,0.0,0.0,0.0,0.0,0.0,0.0,0.0,0.0,0.0,0.0,0.0,0.0,0.0,0.0,0.0,0.0,0.0,0.0,0.0,0.0,0.0,0.0,0.0,0.0,0.0,0.0,0.0,0.0,0.0,0.0,0.0,0.0,0.0,0.0,0.0,0.0,0.0,0.0,0.0,0.0,0.0,0.0,0.0,0.0,0.0,0.0,0.0,0.0,0.0,0.0,0.0,0.0,0.0,0.0,0.0,0.0,0.0,0.0,0.0,0.0,0.0,0.0,0.0,0.0,0.0,0.0,0.0,0.0,0.0,0.0,0.0,0.0,0.0,0.0,0.0,0.0,0.0,0.0,0.0,0.0,0.0,0.0,0.0,0.0,0.0,0.0,0.0,0.0,0.0,0.0,0.0,0.0,0.0,0.0,0.0,0.0,0.0,0.0,0.0,0.0,0.0,0.0,0.0,0.0,0.0,0.0,0.0,0.0,0.0,0.0,0.0
0.3640313646679735,0.40476053242641885,0.43083372612196036,0.43862586428105405,0.42663996668404286,0.39588090323292374,0.349593404588868,0.2927773202174048,0.23138264700548297,0.17135427771534567,0.11788463082549955,0.07461854928623174,0.043371163761833156,0.024139429729911944,0.015372919923736895,0.014621741957586682,0.018955931959330964,0.025575897505874915,0.032233677597149395,0.037424750050352375,0.040576536992264954,0.04173854312857752,0.0414194307578364,0.04032792546438684,0.03909350163453001,0.03826520785630756,0.03803901149941074,0.038344601865208224,0.038931870549946644,0.03943391238439786,0.03965136783004778,0.039417770551999895,0.038691054756206614,0.03753581563550643,0.03601954629447161,0.03435406573298154,0.032646578781904384,0.030951506522853785,0.029279883693204927,0.02755227908684621,0.025855287491503218,0.02419775016949627,0.022588685520908935,0.021023951750903425,0.01939041950225846,0.017737156998779476,0.01599052389660314,0.014083325301629354,0.011995252774613382,0.009609899729050724,0.007347633652827949,0.005383486807205074,0.003881398406924996,0.0029665537983233365,0.0024296579219644427,0.0026836541604340555,0.003545030441814191,0.004725632170079418,0.005936015129998876,0.006818160254245579,0.00753539722974387,0.0,0.0,0.0,0.0,0.0,0.0,0.0,0.0,0.0,0.0,0.0,0.0,0.0,0.0,0.0,0.0,0.0,0.0,0.0,0.0,0.0,0.0,0.0,0.0,0.0,0.0,0.0,0.0,0.0,0.0,0.0,0.0,0.0,0.0,0.0,0.0,0.0,0.0,0.0,0.0,0.0,0.0,0.0,0.0,0.0,0.0,0.0,0.0,0.0,0.0,0.0,0.0,0.0,0.0,0.0,0.0,0.0,0.0,0.0,0.0,0.0,0.0,0.0,0.0,0.0,0.0,0.0,0.0,0.0,0.0,0.0,0.0,0.0,0.0,0.0,0.0,0.0,0.0,0.0,0.0,0.0,0.0,0.0,0.0,0.0,0.0,0.0,0.0,0.0,0.0,0.0,0.0,0.0,0.0,0.0,0.0,0.0,0.0,0.0,0.0,0.0,0.0,0.0,0.0,0.0,0.0,0.0,0.0,0.0,0.0,0.0,0.0,0.0,0.0,0.0,0.0,0.0,0.0,0.0,0.0,0.0,0.0,0.0,0.0,0.0,0.0,0.0,0.0,0.0,0.0,0.0,0.0,0.0,0.0,0.0,0.0,0.0,0.0,0.0,0.0,0.0,0.0,0.0,0.0,0.0,0.0,0.0,0.0,0.0,0.0,0.0,0.0,0.0,0.0,0.0,0.0,0.0,0.0,0.0,0.0,0.0,0.0,0.0,0.0,0.0,0.0,0.0,0.0,0.0,0.0,0.0,0.0,0.0,0.0,0.0,0.0,0.0,0.0,0.0,0.0,0.0,0.0,0.0,0.0,0.0,0.0,0.0,0.0,0.0,0.0,0.0,0.0,0.0,0.0,0.0,0.0,0.0,0.0,0.0,0.0,0.0,0.0,0.0,0.0,0.0,0.0,0.0,0.0,0.0,0.0,0.0,0.0,0.0,0.0,0.0,0.0,0.0,0.0,0.0,0.0,0.0,0.0,0.0,0.0,0.0,0.0,0.0,0.0,0.0,0.0,0.0,0.0,0.0,0.0,0.0,0.0,0.0,0.0,0.0,0.0009297784648633852,-0.005722663026541474,-0.01035557665922814,-0.012767386190311605,-0.013228203221198494,-0.012109501851605625,-0.01002437352690246,-0.007610215333989059,-0.005383448402245006,-0.003744332401571546,-0.0025795118114318965,-0.0015720153335068937,-0.00022327919175774166,0.002000489385821596,0.005394805177453291,0.010273645807325555,0.01659769255136039,0.024062566464832142,0.032155646926930306,0.04014408781585388,0.047525903536142465,0.053834856880754935,0.05878933910202808,0.06231080446803902,0.06440568275278757,0.06541707962128458,0.06568100108662227,0.065544816547902,0.06531509357230714,0.06514199094611012,0.06527680226083007,0.0658240671781194,0.06683422884396563,0.06831938267657525,0.07019129742063343,0.07249550264089838,0.07517569209802272,0.07813897963975222,0.08125571130672994,0.08429660133737929,0.0871928119150295,0.08983198185493382,0.09215885988494954,0.09419203993688463,0.0959450959682166,0.09764240082385649,0.09943706156558406,0.1014332712013847,0.10364662294538583,0.10593152079136854,0.10817874282919696,0.11020755789865738,0.11186950874617524,0.11310120595388704,0.11391073778135254,0.11448319547277333,0.11505734007320942,0.11585808510612572,0.11700652351912173,0.11841279748639123,0.11987905649372739,0.0,0.0,0.0,0.0,0.0,0.0,0.0,0.0,0.0,0.0,0.0,0.0,0.0,0.0,0.0,0.0,0.0,0.0,0.0,0.0,0.0,0.0,0.0,0.0,0.0,0.0,0.0,0.0,0.0,0.0,0.0,0.0,0.0,0.0,0.0,0.0,0.0,0.0,0.0,0.0,0.0,0.0,0.0,0.0,0.0,0.0,0.0,0.0,0.0,0.0,0.0,0.0,0.0,0.0,0.0,0.0,0.0,0.0,0.0,0.0,0.0,0.0,0.0,0.0,0.0,0.0,0.0,0.0,0.0,0.0,0.0,0.0,0.0,0.0,0.0,0.0,0.0,0.0,0.0,0.0,0.0,0.0,0.0,0.0,0.0,0.0,0.0,0.0,0.0,0.0,0.0,0.0,0.0,0.0,0.0,0.0,0.0,0.0,0.0,0.0,0.0,0.0,0.0,0.0,0.0,0.0,0.0,0.0,0.0,0.0,0.0,0.0,0.0,0.0,0.0,0.0,0.0,0.0,0.0,0.0,0.0,0.0,0.0,0.0,0.0,0.0,0.0,0.0,0.0,0.0,0.0,0.0,0.0,0.0,0.0,0.0,0.0,0.0,0.0,0.0,0.0,0.0,0.0,0.0,0.0,0.0,0.0,0.0,0.0,0.0,0.0,0.0,0.0,0.0,0.0,0.0,0.0,0.0,0.0,0.0,0.0,0.0,0.0,0.0,0.0,0.0,0.0,0.0,0.0,0.0,0.0,0.0,0.0,0.0,0.0,0.0,0.0,0.0,0.0,0.0,0.0,0.0,0.0,0.0,0.0,0.0,0.0,0.0,0.0,0.0,0.0,0.0,0.0,0.0,0.0,0.0,0.0,0.0,0.0,0.0,0.0,0.0,0.0,0.0,0.0,0.0,0.0,0.0,0.0,0.0,0.0,0.0,0.0,0.0,0.0,0.0,0.0,0.0,0.0,0.0,0.0,0.0,0.0,0.0,0.0,0.0,0.0,0.0,0.0,0.0,0.0,0.0,0.0,0.0,0.0,0.0,0.0,0.0,0.0
0.03233296127952697,0.03216865873514578,0.03203902494281793,0.03201895364315709,0.03219245512617832,0.03258731431913815,0.03331507511038861,0.034385696041924964,0.035753505130958846,0.03731840614656244,0.03888396629845959,0.04034626143610019,0.04152986855533811,0.042271533895491924,0.04244435716694657,0.041922038906563465,0.04077717251328047,0.03908422118648175,0.03698012751507374,0.034652652013954094,0.03227097700343057,0.0301251575352087,0.028419412257607357,0.02730460240105118,0.02686094686096161,0.02704628833853698,0.027843436764624408,0.029117028600062947,0.030686716238797818,0.0323575385834938,0.03390734997182264,0.03526143595762132,0.036356994295151726,0.037199055748748856,0.03785413030602599,0.03838535050298579,0.03897166769277248,0.0397218885188804,0.04069267435865849,0.041868877598294246,0.04311921409437127,0.044337046161514744,0.0453299163387947,0.0458998810205326,0.045883624890562504,0.04515350951886846,0.04374888751223296,0.041758989807034685,0.03934920185806279,0.03673557188924617,0.034119738855541995,0.0317609475197787,0.029829780636820076,0.028428646262285747,0.027587518887929836,0.027240551391009137,0.027343470117658298,0.027778672732360208,0.028412957332923896,0.02911657375852486,0.02973565673619406,0.0,0.0,0.0,0.0,0.0,0.0,0.0,0.0,0.0,0.0,0.0,0.0,0.0,0.0,0.0,0.0,0.0,0.0,0.0,0.0,0.0,0.0,0.0,0.0,0.0,0.0,0.0,0.0,0.0,0.0,0.0,0.0,0.0,0.0,0.0,0.0,0.0,0.0,0.0,0.0,0.0,0.0,0.0,0.0,0.0,0.0,0.0,0.0,0.0,0.0,0.0,0.0,0.0,0.0,0.0,0.0,0.0,0.0,0.0,0.0,0.0,0.0,0.0,0.0,0.0,0.0,0.0,0.0,0.0,0.0,0.0,0.0,0.0,0.0,0.0,0.0,0.0,0.0,0.0,0.0,0.0,0.0,0.0,0.0,0.0,0.0,0.0,0.0,0.0,0.0,0.0,0.0,0.0,0.0,0.0,0.0,0.0,0.0,0.0,0.0,0.0,0.0,0.0,0.0,0.0,0.0,0.0,0.0,0.0,0.0,0.0,0.0,0.0,0.0,0.0,0.0,0.0,0.0,0.0,0.0,0.0,0.0,0.0,0.0,0.0,0.0,0.0,0.0,0.0,0.0,0.0,0.0,0.0,0.0,0.0,0.0,0.0,0.0,0.0,0.0,0.0,0.0,0.0,0.0,0.0,0.0,0.0,0.0,0.0,0.0,0.0,0.0,0.0,0.0,0.0,0.0,0.0,0.0,0.0,0.0,0.0,0.0,0.0,0.0,0.0,0.0,0.0,0.0,0.0,0.0,0.0,0.0,0.0,0.0,0.0,0.0,0.0,0.0,0.0,0.0,0.0,0.0,0.0,0.0,0.0,0.0,0.0,0.0,0.0,0.0,0.0,0.0,0.0,0.0,0.0,0.0,0.0,0.0,0.0,0.0,0.0,0.0,0.0,0.0,0.0,0.0,0.0,0.0,0.0,0.0,0.0,0.0,0.0,0.0,0.0,0.0,0.0,0.0,0.0,0.0,0.0,0.0,0.0,0.0,0.0,0.0,0.0,0.0,0.0,0.0,0.0,0.0,0.0,0.0,0.0,0.0,0.0,0.0,0.0,-0.015979664778142354,-0.01327867238060854,-0.01097371260616063,-0.009020306648839604,-0.007293218738322176,-0.005660159838302067,-0.0039509054545845464,-0.0020666073985124082,1.7877571805577996e-05,0.0022530311172896072,0.0045080770786984385,0.0066763443317365235,0.008650820411518404,0.010364113740688196,0.011799280972901388,0.012962462149398769,0.013935877269076684,0.01480939010109361,0.015665424736124943,0.016557769468154352,0.017483234231189474,0.018438853544194223,0.01940262728058815,0.020359586417818227,0.021316257963407317,0.0222926148158144,0.023352811690493313,0.02456270415269005,0.02596640304356591,0.027557647504582148,0.029257451219567025,0.03091940942537503,0.0323571329890762,0.03337302319343982,0.03379903704575698,0.03354052367628209,0.03257606141597571,0.031002790442781474,0.029003703192881907,0.02681209770744941,0.024567737653248024,0.02256673856258251,0.021031051640232407,0.02010664470447278,0.019825158369141845,0.019881176084772464,0.02025746434520222,0.020838720224381335,0.021532331565863302,0.02226852878785762,0.022839876364642627,0.023325029050941137,0.023766368000902892,0.024217036752279566,0.02471189920657339,0.025159326573268293,0.02560763854520156,0.026063815474865294,0.026545961873946426,0.02707660898467442,0.027612822526889274,0.0,0.0,0.0,0.0,0.0,0.0,0.0,0.0,0.0,0.0,0.0,0.0,0.0,0.0,0.0,0.0,0.0,0.0,0.0,0.0,0.0,0.0,0.0,0.0,0.0,0.0,0.0,0.0,0.0,0.0,0.0,0.0,0.0,0.0,0.0,0.0,0.0,0.0,0.0,0.0,0.0,0.0,0.0,0.0,0.0,0.0,0.0,0.0,0.0,0.0,0.0,0.0,0.0,0.0,0.0,0.0,0.0,0.0,0.0,0.0,0.0,0.0,0.0,0.0,0.0,0.0,0.0,0.0,0.0,0.0,0.0,0.0,0.0,0.0,0.0,0.0,0.0,0.0,0.0,0.0,0.0,0.0,0.0,0.0,0.0,0.0,0.0,0.0,0.0,0.0,0.0,0.0,0.0,0.0,0.0,0.0,0.0,0.0,0.0,0.0,0.0,0.0,0.0,0.0,0.0,0.0,0.0,0.0,0.0,0.0,0.0,0.0,0.0,0.0,0.0,0.0,0.0,0.0,0.0,0.0,0.0,0.0,0.0,0.0,0.0,0.0,0.0,0.0,0.0,0.0,0.0,0.0,0.0,0.0,0.0,0.0,0.0,0.0,0.0,0.0,0.0,0.0,0.0,0.0,0.0,0.0,0.0,0.0,0.0,0.0,0.0,0.0,0.0,0.0,0.0,0.0,0.0,0.0,0.0,0.0,0.0,0.0,0.0,0.0,0.0,0.0,0.0,0.0,0.0,0.0,0.0,0.0,0.0,0.0,0.0,0.0,0.0,0.0,0.0,0.0,0.0,0.0,0.0,0.0,0.0,0.0,0.0,0.0,0.0,0.0,0.0,0.0,0.0,0.0,0.0,0.0,0.0,0.0,0.0,0.0,0.0,0.0,0.0,0.0,0.0,0.0,0.0,0.0,0.0,0.0,0.0,0.0,0.0,0.0,0.0,0.0,0.0,0.0,0.0,0.0,0.0,0.0,0.0,0.0,0.0,0.0,0.0,0.0,0.0,0.0,0.0,0.0,0.0,0.0,0.0,0.0,0.0,0.0,0.0
0.021327872144612372,0.022087260897940057,0.022817266509608625,0.023343872767016816,0.023710559463727993,0.0240168264880214,0.02449014813963359,0.02546540879150736,0.027254764957991336,0.03030148235767058,0.034851431570795295,0.0409182241575935,0.048201938184773606,0.05598439128101059,0.06336595767918703,0.06915133035379509,0.07206327301698942,0.07093846757803986,0.06487865799956873,0.05362787179803315,0.03751598338535459,0.017547257825216822,-0.004676936591870552,-0.02719570494184067,-0.04778504745613426,-0.06442863032152293,-0.07556081216582294,-0.08029234076178096,-0.07857370276076457,-0.0710292557559476,-0.05896242379440378,-0.04407493790999544,-0.028182284127034985,-0.012983900132658413,0.0003093362443753251,0.010955871405715942,0.01874681951864289,0.02392777250771098,0.027004110728714597,0.02872010344764575,0.029749641965557627,0.030619468742805134,0.031648928922589,0.03290415683390778,0.03439933176401261,0.036033176958305366,0.03770554037794666,0.03937008533746701,0.04100594502585952,0.04274837686893062,0.04471189248278698,0.04697374996894269,0.049524855269479306,0.05219250094594591,0.054809259296949256,0.05710319371500771,0.058798909326952836,0.0596796252014916,0.059581522403112756,0.05859634234261683,0.05690255376660412,0.0,0.0,0.0,0.0,0.0,0.0,0.0,0.0,0.0,0.0,0.0,0.0,0.0,0.0,0.0,0.0,0.0,0.0,0.0,0.0,0.0,0.0,0.0,0.0,0.0,0.0,0.0,0.0,0.0,0.0,0.0,0.0,0.0,0.0,0.0,0.0,0.0,0.0,0.0,0.0,0.0,0.0,0.0,0.0,0.0,0.0,0.0,0.0,0.0,0.0,0.0,0.0,0.0,0.0,0.0,0.0,0.0,0.0,0.0,0.0,0.0,0.0,0.0,0.0,0.0,0.0,0.0,0.0,0.0,0.0,0.0,0.0,0.0,0.0,0.0,0.0,0.0,0.0,0.0,0.0,0.0,0.0,0.0,0.0,0.0,0.0,0.0,0.0,0.0,0.0,0.0,0.0,0.0,0.0,0.0,0.0,0.0,0.0,0.0,0.0,0.0,0.0,0.0,0.0,0.0,0.0,0.0,0.0,0.0,0.0,0.0,0.0,0.0,0.0,0.0,0.0,0.0,0.0,0.0,0.0,0.0,0.0,0.0,0.0,0.0,0.0,0.0,0.0,0.0,0.0,0.0,0.0,0.0,0.0,0.0,0.0,0.0,0.0,0.0,0.0,0.0,0.0,0.0,0.0,0.0,0.0,0.0,0.0,0.0,0.0,0.0,0.0,0.0,0.0,0.0,0.0,0.0,0.0,0.0,0.0,0.0,0.0,0.0,0.0,0.0,0.0,0.0,0.0,0.0,0.0,0.0,0.0,0.0,0.0,0.0,0.0,0.0,0.0,0.0,0.0,0.0,0.0,0.0,0.0,0.0,0.0,0.0,0.0,0.0,0.0,0.0,0.0,0.0,0.0,0.0,0.0,0.0,0.0,0.0,0.0,0.0,0.0,0.0,0.0,0.0,0.0,0.0,0.0,0.0,0.0,0.0,0.0,0.0,0.0,0.0,0.0,0.0,0.0,0.0,0.0,0.0,0.0,0.0,0.0,0.0,0.0,0.0,0.0,0.0,0.0,0.0,0.0,0.0,0.0,0.0,0.0,0.0,0.0,0.0,0.01802883624538622,0.01714978243640377,0.015916140326025487,0.014511295285042433,0.013254217328857407,0.012478207361234537,0.012467230092421379,0.013368858128594594,0.015120072264184126,0.017478318238309556,0.020005137139513903,0.022209956750421225,0.02371905814928323,0.02445282945627042,0.024792054251786624,0.025595714341268942,0.02816663059597163,0.034069258169971875,0.04483617222909146,0.06159973831568206,0.08471201527374769,0.11349620284405959,0.14615805813310284,0.17992251442729712,0.21135149538889353,0.23683890856704912,0.2532053409682867,0.2582468580962338,0.25114800705296897,0.23259820924605853,0.2046789747432453,0.17051570522602283,0.13375628500643402,0.09800137084428354,0.06624232415052625,0.04048101844328095,0.021569242812813718,0.009265711916634188,0.002486612595814407,-0.00036237345806773206,-0.0010040963089019833,-0.0009483799207725366,-0.0012593327498653672,-0.0024610252177531176,-0.004550291736450225,-0.0071648184964547,-0.009757050476745022,-0.011784377416364922,-0.012878605768723943,-0.012869476473048392,-0.0118624261629035,-0.010162492821955693,-0.008179300883798903,-0.006343915971642989,-0.0049516743537939166,-0.004184483261079189,-0.004082616918061101,-0.004574224351232882,-0.0055493732021288916,-0.006829492383954013,-0.00827834038267355,0.0,0.0,0.0,0.0,0.0,0.0,0.0,0.0,0.0,0.0,0.0,0.0,0.0,0.0,0.0,0.0,0.0,0.0,0.0,0.0,0.0,0.0,0.0,0.0,0.0,0.0,0.0,0.0,0.0,0.0,0.0,0.0,0.0,0.0,0.0,0.0,0.0,0.0,0.0,0.0,0.0,0.0,0.0,0.0,0.0,0.0,0.0,0.0,0.0,0.0,0.0,0.0,0.0,0.0,0.0,0.0,0.0,0.0,0.0,0.0,0.0,0.0,0.0,0.0,0.0,0.0,0.0,0.0,0.0,0.0,0.0,0.0,0.0,0.0,0.0,0.0,0.0,0.0,0.0,0.0,0.0,0.0,0.0,0.0,0.0,0.0,0.0,0.0,0.0,0.0,0.0,0.0,0.0,0.0,0.0,0.0,0.0,0.0,0.0,0.0,0.0,0.0,0.0,0.0,0.0,0.0,0.0,0.0,0.0,0.0,0.0,0.0,0.0,0.0,0.0,0.0,0.0,0.0,0.0,0.0,0.0,0.0,0.0,0.0,0.0,0.0,0.0,0.0,0.0,0.0,0.0,0.0,0.0,0.0,0.0,0.0,0.0,0.0,0.0,0.0,0.0,0.0,0.0,0.0,0.0,0.0,0.0,0.0,0.0,0.0,0.0,0.0,0.0,0.0,0.0,0.0,0.0,0.0,0.0,0.0,0.0,0.0,0.0,0.0,0.0,0.0,0.0,0.0,0.0,0.0,0.0,0.0,0.0,0.0,0.0,0.0,0.0,0.0,0.0,0.0,0.0,0.0,0.0,0.0,0.0,0.0,0.0,0.0,0.0,0.0,0.0,0.0,0.0,0.0,0.0,0.0,0.0,0.0,0.0,0.0,0.0,0.0,0.0,0.0,0.0,0.0,0.0,0.0,0.0,0.0,0.0,0.0,0.0,0.0,0.0,0.0,0.0,0.0,0.0,0.0,0.0,0.0,0.0,0.0,0.0,0.0,0.0,0.0,0.0,0.0,0.0,0.0,0.0,0.0,0.0,0.0,0.0,0.0,0.0
0.04697374996894269,0.049524855269479306,0.05219250094594591,0.054809259296949256,0.05710319371500771,0.058798909326952836,0.0596796252014916,0.059581522403112756,0.05859634234261683,0.05690255376660412,0.054773518656226025,0.05251586407127196,0.050339944698296814,0.04851066854276189,0.04710870044631823,0.046097389329549154,0.045352102941052325,0.04463746953164989,0.0438914609003316,0.04300989768104321,0.04195509332100479,0.04076136391589311,0.03948964410269787,0.03828314595689747,0.037272109589653796,0.03655398151468829,0.036170624890733895,0.03611151010400878,0.03626053545025571,0.0365507737977121,0.03691972260313138,0.03731170436259016,0.03765873385373942,0.037931070190698815,0.03813402331529719,0.03829558862909843,0.038452783834446426,0.03858638526626617,0.03876785581424867,0.039006256977341,0.03929076872011867,0.03959552984987232,0.03983760944835293,0.04005457705891652,0.040253763426264515,0.04046525353385052,0.04073827586529821,0.04107717434718639,0.0415980172437275,0.04233636686579888,0.04328732333544901,0.044398176754565116,0.04551350035631986,0.04657385996871821,0.04743747651961892,0.04796762795085919,0.04805807764383202,0.04759308478028436,0.04666074140816866,0.04533289086625773,0.04372754883619048,0.0,0.0,0.0,0.0,0.0,0.0,0.0,0.0,0.0,0.0,0.0,0.0,0.0,0.0,0.0,0.0,0.0,0.0,0.0,0.0,0.0,0.0,0.0,0.0,0.0,0.0,0.0,0.0,0.0,0.0,0.0,0.0,0.0,0.0,0.0,0.0,0.0,0.0,0.0,0.0,0.0,0.0,0.0,0.0,0.0,0.0,0.0,0.0,0.0,0.0,0.0,0.0,0.0,0.0,0.0,0.0,0.0,0.0,0.0,0.0,0.0,0.0,0.0,0.0,0.0,0.0,0.0,0.0,0.0,0.0,0.0,0.0,0.0,0.0,0.0,0.0,0.0,0.0,0.0,0.0,0.0,0.0,0.0,0.0,0.0,0.0,0.0,0.0,0.0,0.0,0.0,0.0,0.0,0.0,0.0,0.0,0.0,0.0,0.0,0.0,0.0,0.0,0.0,0.0,0.0,0.0,0.0,0.0,0.0,0.0,0.0,0.0,0.0,0.0,0.0,0.0,0.0,0.0,0.0,0.0,0.0,0.0,0.0,0.0,0.0,0.0,0.0,0.0,0.0,0.0,0.0,0.0,0.0,0.0,0.0,0.0,0.0,0.0,0.0,0.0,0.0,0.0,0.0,0.0,0.0,0.0,0.0,0.0,0.0,0.0,0.0,0.0,0.0,0.0,0.0,0.0,0.0,0.0,0.0,0.0,0.0,0.0,0.0,0.0,0.0,0.0,0.0,0.0,0.0,0.0,0.0,0.0,0.0,0.0,0.0,0.0,0.0,0.0,0.0,0.0,0.0,0.0,0.0,0.0,0.0,0.0,0.0,0.0,0.0,0.0,0.0,0.0,0.0,0.0,0.0,0.0,0.0,0.0,0.0,0.0,0.0,0.0,0.0,0.0,0.0,0.0,0.0,0.0,0.0,0.0,0.0,0.0,0.0,0.0,0.0,0.0,0.0,0.0,0.0,0.0,0.0,0.0,0.0,0.0,0.0,0.0,0.0,0.0,0.0,0.0,0.0,0.0,0.0,0.0,0.0,0.0,0.0,0.0,0.0,-0.010162492821955693,-0.008179300883798903,-0.006343915971642989,-0.0049516743537939166,-0.004184483261079189,-0.004082616918061101,-0.004574224351232882,-0.0055493732021288916,-0.006829492383954013,-0.00827834038267355,-0.009795276862996942,-0.011313815088840691,-0.012825837190752646,-0.014261719394789346,-0.01560163131259448,-0.016851129008798805,-0.0180534058264485,-0.019337178640125866,-0.0207614585955604,-0.022430738979608587,-0.024406031259601862,-0.026663742302640087,-0.029176021215002002,-0.031551395260582905,-0.03351515427797852,-0.03481444708119944,-0.03527407877883167,-0.035004142469477854,-0.03382673084465274,-0.031989579396374965,-0.02983696975241336,-0.027702465253006705,-0.025909247094493486,-0.024378972386241687,-0.023033502415104802,-0.021692510770912637,-0.020130851727181737,-0.018172767290670157,-0.015667159063090505,-0.012597234411235276,-0.00906647827579033,-0.005276598510581566,-0.0015073246798780163,0.0020076245225021704,0.005078528483687548,0.007603766883361595,0.009577654706018606,0.011055671069217182,0.012181202412270446,0.013118037150246273,0.014014768175271499,0.014972408041316046,0.016006479739036353,0.017111282972436772,0.018241075427655008,0.01934080638628521,0.020367161376613485,0.021279315371785172,0.022107741083982047,0.022900510914169746,0.023713178517661714,0.0,0.0,0.0,0.0,0.0,0.0,0.0,0.0,0.0,0.0,0.0,0.0,0.0,0.0,0.0,0.0,0.0,0.0,0.0,0.0,0.0,0.0,0.0,0.0,0.0,0.0,0.0,0.0,0.0,0.0,0.0,0.0,0.0,0.0,0.0,0.0,0.0,0.0,0.0,0.0,0.0,0.0,0.0,0.0,0.0,0.0,0.0,0.0,0.0,0.0,0.0,0.0,0.0,0.0,0.0,0.0,0.0,0.0,0.0,0.0,0.0,0.0,0.0,0.0,0.0,0.0,0.0,0.0,0.0,0.0,0.0,0.0,0.0,0.0,0.0,0.0,0.0,0.0,0.0,0.0,0.0,0.0,0.0,0.0,0.0,0.0,0.0,0.0,0.0,0.0,0.0,0.0,0.0,0.0,0.0,0.0,0.0,0.0,0.0,0.0,0.0,0.0,0.0,0.0,0.0,0.0,0.0,0.0,0.0,0.0,0.0,0.0,0.0,0.0,0.0,0.0,0.0,0.0,0.0,0.0,0.0,0.0,0.0,0.0,0.0,0.0,0.0,0.0,0.0,0.0,0.0,0.0,0.0,0.0,0.0,0.0,0.0,0.0,0.0,0.0,0.0,0.0,0.0,0.0,0.0,0.0,0.0,0.0,0.0,0.0,0.0,0.0,0.0,0.0,0.0,0.0,0.0,0.0,0.0,0.0,0.0,0.0,0.0,0.0,0.0,0.0,0.0,0.0,0.0,0.0,0.0,0.0,0.0,0.0,0.0,0.0,0.0,0.0,0.0,0.0,0.0,0.0,0.0,0.0,0.0,0.0,0.0,0.0,0.0,0.0,0.0,0.0,0.0,0.0,0.0,0.0,0.0,0.0,0.0,0.0,0.0,0.0,0.0,0.0,0.0,0.0,0.0,0.0,0.0,0.0,0.0,0.0,0.0,0.0,0.0,0.0,0.0,0.0,0.0,0.0,0.0,0.0,0.0,0.0,0.0,0.0,0.0,0.0,0.0,0.0,0.0,0.0,0.0,0.0,0.0,0.0,0.0,0.0,0.0
0.044398176754565116,0.04551350035631986,0.04657385996871821,0.04743747651961892,0.04796762795085919,0.04805807764383202,0.04759308478028436,0.04666074140816866,0.04533289086625773,0.04372754883619048,0.04199317825617856,0.04023125875236879,0.03865908898771156,0.03738863181012853,0.03647782974895946,0.0359282788685251,0.03564061466121656,0.03559919111177763,0.03571042208262427,0.03588029635703863,0.03603306967193343,0.03606946094754863,0.03605087986330115,0.036015082140136434,0.036021888399713424,0.03613786047534176,0.036360924752956075,0.036792320924851026,0.037443516618154274,0.03828629931046288,0.0392542675855636,0.040232574168229035,0.04114096113146572,0.0418596125250409,0.04228816979259588,0.04237067469578544,0.042132357934672925,0.04163011881595708,0.040933750357176786,0.04012317365463613,0.03927681685400591,0.03845894127753973,0.03774042887051548,0.03713290334791489,0.03662261032452579,0.03618295901222637,0.035757203893396594,0.035368566658508196,0.034999468776569426,0.03463470063510596,0.03426316498996088,0.03383038962253467,0.03340422496002967,0.03300126968592735,0.032641210403185274,0.03234337096769539,0.032050978023718285,0.03184937397995327,0.031735424497501157,0.03168449293091773,0.03165488766787042,0.0,0.0,0.0,0.0,0.0,0.0,0.0,0.0,0.0,0.0,0.0,0.0,0.0,0.0,0.0,0.0,0.0,0.0,0.0,0.0,0.0,0.0,0.0,0.0,0.0,0.0,0.0,0.0,0.0,0.0,0.0,0.0,0.0,0.0,0.0,0.0,0.0,0.0,0.0,0.0,0.0,0.0,0.0,0.0,0.0,0.0,0.0,0.0,0.0,0.0,0.0,0.0,0.0,0.0,0.0,0.0,0.0,0.0,0.0,0.0,0.0,0.0,0.0,0.0,0.0,0.0,0.0,0.0,0.0,0.0,0.0,0.0,0.0,0.0,0.0,0.0,0.0,0.0,0.0,0.0,0.0,0.0,0.0,0.0,0.0,0.0,0.0,0.0,0.0,0.0,0.0,0.0,0.0,0.0,0.0,0.0,0.0,0.0,0.0,0.0,0.0,0.0,0.0,0.0,0.0,0.0,0.0,0.0,0.0,0.0,0.0,0.0,0.0,0.0,0.0,0.0,0.0,0.0,0.0,0.0,0.0,0.0,0.0,0.0,0.0,0.0,0.0,0.0,0.0,0.0,0.0,0.0,0.0,0.0,0.0,0.0,0.0,0.0,0.0,0.0,0.0,0.0,0.0,0.0,0.0,0.0,0.0,0.0,0.0,0.0,0.0,0.0,0.0,0.0,0.0,0.0,0.0,0.0,0.0,0.0,0.0,0.0,0.0,0.0,0.0,0.0,0.0,0.0,0.0,0.0,0.0,0.0,0.0,0.0,0.0,0.0,0.0,0.0,0.0,0.0,0.0,0.0,0.0,0.0,0.0,0.0,0.0,0.0,0.0,0.0,0.0,0.0,0.0,0.0,0.0,0.0,0.0,0.0,0.0,0.0,0.0,0.0,0.0,0.0,0.0,0.0,0.0,0.0,0.0,0.0,0.0,0.0,0.0,0.0,0.0,0.0,0.0,0.0,0.0,0.0,0.0,0.0,0.0,0.0,0.0,0.0,0.0,0.0,0.0,0.0,0.0,0.0,0.0,0.0,0.0,0.0,0.0,0.0,0.0,0.014972408041316046,0.016006479739036353,0.017111282972436772,0.018241075427655008,0.01934080638628521,0.020367161376613485,0.021279315371785172,0.022107741083982047,0.022900510914169746,0.023713178517661714,0.024584568375528238,0.025500591137585075,0.026435401340201847,0.027336121136557763,0.028141743613371295,0.02880197537444299,0.029281281570079042,0.029595417059253476,0.0298050469998608,0.029990982223347295,0.03022466124010783,0.03053958114021266,0.03090713278534538,0.03127239536750355,0.03155043451822486,0.03164734710577267,0.031495240621383085,0.031028839721801173,0.03026983776491864,0.02929360919453843,0.02820997684669376,0.02704355732538158,0.025983515806471263,0.025183906554415273,0.0247645409025214,0.02477260658761486,0.024959151644254184,0.02537416288129712,0.025964671689374403,0.026685207077276216,0.02749039809601662,0.02818558689474999,0.028818979436423992,0.029377375078241567,0.029848301980433745,0.030208189604418387,0.030348759554592746,0.030300245785149182,0.030073634270066422,0.02971458452586359,0.029298208800858244,0.02886664645583528,0.02853951536233639,0.028365915855924545,0.02833831059080392,0.028388227997298104,0.028385233899300564,0.02823170818912995,0.027838282012141776,0.027185633527152357,0.02634419540496457,0.0,0.0,0.0,0.0,0.0,0.0,0.0,0.0,0.0,0.0,0.0,0.0,0.0,0.0,0.0,0.0,0.0,0.0,0.0,0.0,0.0,0.0,0.0,0.0,0.0,0.0,0.0,0.0,0.0,0.0,0.0,0.0,0.0,0.0,0.0,0.0,0.0,0.0,0.0,0.0,0.0,0.0,0.0,0.0,0.0,0.0,0.0,0.0,0.0,0.0,0.0,0.0,0.0,0.0,0.0,0.0,0.0,0.0,0.0,0.0,0.0,0.0,0.0,0.0,0.0,0.0,0.0,0.0,0.0,0.0,0.0,0.0,0.0,0.0,0.0,0.0,0.0,0.0,0.0,0.0,0.0,0.0,0.0,0.0,0.0,0.0,0.0,0.0,0.0,0.0,0.0,0.0,0.0,0.0,0.0,0.0,0.0,0.0,0.0,0.0,0.0,0.0,0.0,0.0,0.0,0.0,0.0,0.0,0.0,0.0,0.0,0.0,0.0,0.0,0.0,0.0,0.0,0.0,0.0,0.0,0.0,0.0,0.0,0.0,0.0,0.0,0.0,0.0,0.0,0.0,0.0,0.0,0.0,0.0,0.0,0.0,0.0,0.0,0.0,0.0,0.0,0.0,0.0,0.0,0.0,0.0,0.0,0.0,0.0,0.0,0.0,0.0,0.0,0.0,0.0,0.0,0.0,0.0,0.0,0.0,0.0,0.0,0.0,0.0,0.0,0.0,0.0,0.0,0.0,0.0,0.0,0.0,0.0,0.0,0.0,0.0,0.0,0.0,0.0,0.0,0.0,0.0,0.0,0.0,0.0,0.0,0.0,0.0,0.0,0.0,0.0,0.0,0.0,0.0,0.0,0.0,0.0,0.0,0.0,0.0,0.0,0.0,0.0,0.0,0.0,0.0,0.0,0.0,0.0,0.0,0.0,0.0,0.0,0.0,0.0,0.0,0.0,0.0,0.0,0.0,0.0,0.0,0.0,0.0,0.0,0.0,0.0,0.0,0.0,0.0,0.0,0.0,0.0,0.0,0.0,0.0,0.0,0.0,0.0
0.03383038962253467,0.03340422496002967,0.03300126968592735,0.032641210403185274,0.03234337096769539,0.032050978023718285,0.03184937397995327,0.031735424497501157,0.03168449293091773,0.03165488766787042,0.031529391799911946,0.03135721843667419,0.031155538117475803,0.0309879681657185,0.03096640436804543,0.0311674576669503,0.03182734280040931,0.03308916827147923,0.035011537024066536,0.03751527173957977,0.040271406733786,0.04292031273774813,0.04488239835700941,0.04548558299171808,0.0440641391111141,0.040005391065931165,0.03311141292804609,0.023478557413457727,0.011608684739620286,-0.0016157461988354723,-0.015104406165266551,-0.027490259908703716,-0.03754725447137313,-0.04432305869775288,-0.047295631508785047,-0.046523775921458274,-0.04240649807664835,-0.03579409689674247,-0.027747786341321704,-0.019336646973350316,-0.011518357289615918,-0.004787091273683679,0.000671270129958474,0.005010553668526571,0.008622337562084413,0.01192783105405716,0.01544512834455726,0.019474951143483202,0.024098773505949224,0.029177201678160427,0.03433636809847285,0.03926447513084225,0.04361273691122305,0.047134553616643114,0.04973206579423644,0.05139644767734439,0.052382350664728745,0.05295767262567418,0.053391487868830176,0.05389237465110464,0.054502444502471756,0.0,0.0,0.0,0.0,0.0,0.0,0.0,0.0,0.0,0.0,0.0,0.0,0.0,0.0,0.0,0.0,0.0,0.0,0.0,0.0,0.0,0.0,0.0,0.0,0.0,0.0,0.0,0.0,0.0,0.0,0.0,0.0,0.0,0.0,0.0,0.0,0.0,0.0,0.0,0.0,0.0,0.0,0.0,0.0,0.0,0.0,0.0,0.0,0.0,0.0,0.0,0.0,0.0,0.0,0.0,0.0,0.0,0.0,0.0,0.0,0.0,0.0,0.0,0.0,0.0,0.0,0.0,0.0,0.0,0.0,0.0,0.0,0.0,0.0,0.0,0.0,0.0,0.0,0.0,0.0,0.0,0.0,0.0,0.0,0.0,0.0,0.0,0.0,0.0,0.0,0.0,0.0,0.0,0.0,0.0,0.0,0.0,0.0,0.0,0.0,0.0,0.0,0.0,0.0,0.0,0.0,0.0,0.0,0.0,0.0,0.0,0.0,0.0,0.0,0.0,0.0,0.0,0.0,0.0,0.0,0.0,0.0,0.0,0.0,0.0,0.0,0.0,0.0,0.0,0.0,0.0,0.0,0.0,0.0,0.0,0.0,0.0,0.0,0.0,0.0,0.0,0.0,0.0,0.0,0.0,0.0,0.0,0.0,0.0,0.0,0.0,0.0,0.0,0.0,0.0,0.0,0.0,0.0,0.0,0.0,0.0,0.0,0.0,0.0,0.0,0.0,0.0,0.0,0.0,0.0,0.0,0.0,0.0,0.0,0.0,0.0,0.0,0.0,0.0,0.0,0.0,0.0,0.0,0.0,0.0,0.0,0.0,0.0,0.0,0.0,0.0,0.0,0.0,0.0,0.0,0.0,0.0,0.0,0.0,0.0,0.0,0.0,0.0,0.0,0.0,0.0,0.0,0.0,0.0,0.0,0.0,0.0,0.0,0.0,0.0,0.0,0.0,0.0,0.0,0.0,0.0,0.0,0.0,0.0,0.0,0.0,0.0,0.0,0.0,0.0,0.0,0.0,0.0,0.0,0.0,0.0,0.0,0.0,0.0,0.02886664645583528,0.02853951536233639,0.028365915855924545,0.02833831059080392,0.028388227997298104,0.028385233899300564,0.02823170818912995,0.027838282012141776,0.027185633527152357,0.02634419540496457,0.025442045554439498,0.024693535500248047,0.02425002390721441,0.024156426362305944,0.024300162812631042,0.024376192976872872,0.024016039105628068,0.02279242065024569,0.020395826361074513,0.016794046325487567,0.012340907025767374,0.007932075770091546,0.004873841091342759,0.004772788678657722,0.009287929838344094,0.01978559874417714,0.03709831416174537,0.0611452395086686,0.09081907893282598,0.12401529375185362,0.15783891278720474,0.18904743372215677,0.21447140650180463,0.23154815591814298,0.23874265766536312,0.23578903536471896,0.22372188601622914,0.20461759613854752,0.18121206402243603,0.15640662972317576,0.13277900051119737,0.11222048619961295,0.09568460738135501,0.08320380846885778,0.07407060178098836,0.0671373104300969,0.06117945588476522,0.05515173404969046,0.04841866416851101,0.040838294537079135,0.03270175298637659,0.024650861184484122,0.0174041234030584,0.011591216580651945,0.007605987293169912,0.005501605577657686,0.005097023407687892,0.005941967536656381,0.007469014268011868,0.009122697776218896,0.010434054157215369,0.0,0.0,0.0,0.0,0.0,0.0,0.0,0.0,0.0,0.0,0.0,0.0,0.0,0.0,0.0,0.0,0.0,0.0,0.0,0.0,0.0,0.0,0.0,0.0,0.0,0.0,0.0,0.0,0.0,0.0,0.0,0.0,0.0,0.0,0.0,0.0,0.0,0.0,0.0,0.0,0.0,0.0,0.0,0.0,0.0,0.0,0.0,0.0,0.0,0.0,0.0,0.0,0.0,0.0,0.0,0.0,0.0,0.0,0.0,0.0,0.0,0.0,0.0,0.0,0.0,0.0,0.0,0.0,0.0,0.0,0.0,0.0,0.0,0.0,0.0,0.0,0.0,0.0,0.0,0.0,0.0,0.0,0.0,0.0,0.0,0.0,0.0,0.0,0.0,0.0,0.0,0.0,0.0,0.0,0.0,0.0,0.0,0.0,0.0,0.0,0.0,0.0,0.0,0.0,0.0,0.0,0.0,0.0,0.0,0.0,0.0,0.0,0.0,0.0,0.0,0.0,0.0,0.0,0.0,0.0,0.0,0.0,0.0,0.0,0.0,0.0,0.0,0.0,0.0,0.0,0.0,0.0,0.0,0.0,0.0,0.0,0.0,0.0,0.0,0.0,0.0,0.0,0.0,0.0,0.0,0.0,0.0,0.0,0.0,0.0,0.0,0.0,0.0,0.0,0.0,0.0,0.0,0.0,0.0,0.0,0.0,0.0,0.0,0.0,0.0,0.0,0.0,0.0,0.0,0.0,0.0,0.0,0.0,0.0,0.0,0.0,0.0,0.0,0.0,0.0,0.0,0.0,0.0,0.0,0.0,0.0,0.0,0.0,0.0,0.0,0.0,0.0,0.0,0.0,0.0,0.0,0.0,0.0,0.0,0.0,0.0,0.0,0.0,0.0,0.0,0.0,0.0,0.0,0.0,0.0,0.0,0.0,0.0,0.0,0.0,0.0,0.0,0.0,0.0,0.0,0.0,0.0,0.0,0.0,0.0,0.0,0.0,0.0,0.0,0.0,0.0,0.0,0.0,0.0,0.0,0.0,0.0,0.0,0.0
0.03926447513084225,0.04361273691122305,0.047134553616643114,0.04973206579423644,0.05139644767734439,0.052382350664728745,0.05295767262567418,0.053391487868830176,0.05389237465110464,0.054502444502471756,0.055300369033058995,0.05622646833568396,0.05717815844719646,0.05805268350797286,0.05871339193959582,0.05922386492212428,0.059644943432767585,0.06006602093182426,0.060565951990379244,0.061111751280456914,0.06174187739891958,0.06236910665169152,0.06286162350409973,0.06307922047278562,0.06285337681058434,0.06221268454509149,0.06119975369372296,0.05992438951870397,0.05853784979674995,0.0571621003072081,0.055955671264979766,0.055012655676320965,0.0543675814919405,0.05399647912071426,0.05382162130092533,0.053741980493608246,0.053699993372266004,0.05366403580766119,0.05362199738632426,0.05354331004588726,0.053443243284164145,0.053344112376909475,0.0532718295114161,0.05324751565193425,0.0532355317336948,0.053276787330354035,0.05337335514588213,0.05351696586275394,0.053687723333670966,0.05380258575928831,0.05389597921780654,0.05396607292859218,0.0540306451447738,0.054127931015407686,0.05424633957190254,0.05451951500720082,0.05499483813413743,0.055682666750274105,0.056543830303746094,0.057417197670531196,0.05825090243038876,0.0,0.0,0.0,0.0,0.0,0.0,0.0,0.0,0.0,0.0,0.0,0.0,0.0,0.0,0.0,0.0,0.0,0.0,0.0,0.0,0.0,0.0,0.0,0.0,0.0,0.0,0.0,0.0,0.0,0.0,0.0,0.0,0.0,0.0,0.0,0.0,0.0,0.0,0.0,0.0,0.0,0.0,0.0,0.0,0.0,0.0,0.0,0.0,0.0,0.0,0.0,0.0,0.0,0.0,0.0,0.0,0.0,0.0,0.0,0.0,0.0,0.0,0.0,0.0,0.0,0.0,0.0,0.0,0.0,0.0,0.0,0.0,0.0,0.0,0.0,0.0,0.0,0.0,0.0,0.0,0.0,0.0,0.0,0.0,0.0,0.0,0.0,0.0,0.0,0.0,0.0,0.0,0.0,0.0,0.0,0.0,0.0,0.0,0.0,0.0,0.0,0.0,0.0,0.0,0.0,0.0,0.0,0.0,0.0,0.0,0.0,0.0,0.0,0.0,0.0,0.0,0.0,0.0,0.0,0.0,0.0,0.0,0.0,0.0,0.0,0.0,0.0,0.0,0.0,0.0,0.0,0.0,0.0,0.0,0.0,0.0,0.0,0.0,0.0,0.0,0.0,0.0,0.0,0.0,0.0,0.0,0.0,0.0,0.0,0.0,0.0,0.0,0.0,0.0,0.0,0.0,0.0,0.0,0.0,0.0,0.0,0.0,0.0,0.0,0.0,0.0,0.0,0.0,0.0,0.0,0.0,0.0,0.0,0.0,0.0,0.0,0.0,0.0,0.0,0.0,0.0,0.0,0.0,0.0,0.0,0.0,0.0,0.0,0.0,0.0,0.0,0.0,0.0,0.0,0.0,0.0,0.0,0.0,0.0,0.0,0.0,0.0,0.0,0.0,0.0,0.0,0.0,0.0,0.0,0.0,0.0,0.0,0.0,0.0,0.0,0.0,0.0,0.0,0.0,0.0,0.0,0.0,0.0,0.0,0.0,0.0,0.0,0.0,0.0,0.0,0.0,0.0,0.0,0.0,0.0,0.0,0.0,0.0,0.0,0.024650861184484122,0.0174041234030584,0.011591216580651945,0.007605987293169912,0.005501605577657686,0.005097023407687892,0.005941967536656381,0.007469014268011868,0.009122697776218896,0.010434054157215369,0.011201339019365462,0.011388281593762798,0.011125041534772546,0.010639408259267881,0.010136511939693638,0.009854354273969636,0.009895770358302134,0.010252696184214224,0.010822095125726865,0.011402110879563354,0.011851334711324725,0.01201162861838013,0.011758187029610116,0.01100478199218585,0.009665983058759325,0.0077710004410770405,0.005372472841881248,0.002578448909190813,-0.00044734101017621705,-0.003593598805987753,-0.006482390373554959,-0.008904326602527981,-0.010722451485126792,-0.011899464012538285,-0.012668049250135639,-0.012943457498327898,-0.012979309399076218,-0.013046601718578339,-0.013337853115154412,-0.014007437191366491,-0.014755940639552554,-0.015331919100443429,-0.01543245995453802,-0.01477624221777054,-0.01323643959338423,-0.010678021378710203,-0.00721884472151353,-0.0031238470245708062,0.0012536012523402117,0.005496613901116939,0.009356509023190457,0.012635407202992843,0.015261774083422082,0.017283444722450962,0.01879964301466325,0.02002426039843918,0.021144965124056492,0.0223052566347932,0.023577066013672723,0.024924428011185933,0.026311124314813694,0.0,0.0,0.0,0.0,0.0,0.0,0.0,0.0,0.0,0.0,0.0,0.0,0.0,0.0,0.0,0.0,0.0,0.0,0.0,0.0,0.0,0.0,0.0,0.0,0.0,0.0,0.0,0.0,0.0,0.0,0.0,0.0,0.0,0.0,0.0,0.0,0.0,0.0,0.0,0.0,0.0,0.0,0.0,0.0,0.0,0.0,0.0,0.0,0.0,0.0,0.0,0.0,0.0,0.0,0.0,0.0,0.0,0.0,0.0,0.0,0.0,0.0,0.0,0.0,0.0,0.0,0.0,0.0,0.0,0.0,0.0,0.0,0.0,0.0,0.0,0.0,0.0,0.0,0.0,0.0,0.0,0.0,0.0,0.0,0.0,0.0,0.0,0.0,0.0,0.0,0.0,0.0,0.0,0.0,0.0,0.0,0.0,0.0,0.0,0.0,0.0,0.0,0.0,0.0,0.0,0.0,0.0,0.0,0.0,0.0,0.0,0.0,0.0,0.0,0.0,0.0,0.0,0.0,0.0,0.0,0.0,0.0,0.0,0.0,0.0,0.0,0.0,0.0,0.0,0.0,0.0,0.0,0.0,0.0,0.0,0.0,0.0,0.0,0.0,0.0,0.0,0.0,0.0,0.0,0.0,0.0,0.0,0.0,0.0,0.0,0.0,0.0,0.0,0.0,0.0,0.0,0.0,0.0,0.0,0.0,0.0,0.0,0.0,0.0,0.0,0.0,0.0,0.0,0.0,0.0,0.0,0.0,0.0,0.0,0.0,0.0,0.0,0.0,0.0,0.0,0.0,0.0,0.0,0.0,0.0,0.0,0.0,0.0,0.0,0.0,0.0,0.0,0.0,0.0,0.0,0.0,0.0,0.0,0.0,0.0,0.0,0.0,0.0,0.0,0.0,0.0,0.0,0.0,0.0,0.0,0.0,0.0,0.0,0.0,0.0,0.0,0.0,0.0,0.0,0.0,0.0,0.0,0.0,0.0,0.0,0.0,0.0,0.0,0.0,0.0,0.0,0.0,0.0,0.0,0.0,0.0,0.0,0.0,0.0
0.05396607292859218,0.0540306451447738,0.054127931015407686,0.05424633957190254,0.05451951500720082,0.05499483813413743,0.055682666750274105,0.056543830303746094,0.057417197670531196,0.05825090243038876,0.05888942409685549,0.0591714991243865,0.0589597295920845,0.05809435340454641,0.05665237510929248,0.05470719189320291,0.05239906669720522,0.04991562609813579,0.04740775896446085,0.0451418423209723,0.04326132149135064,0.041838162202968404,0.04087152260418707,0.04026322719872497,0.03996943098957993,0.03985629575654721,0.03979109698658427,0.03967334963892338,0.03941402921844739,0.039092094933003405,0.03876869188387267,0.038531694406350805,0.03847517667365969,0.038627652224242456,0.03909866978964237,0.03987902465551792,0.040902133016657106,0.042057324508769374,0.04314351706852349,0.04411817095966284,0.04488935306331279,0.04540152801427687,0.04563947234387906,0.045534795660851314,0.04523438651911011,0.04481251533737077,0.04433780274618355,0.043861898528209944,0.043323285592466565,0.04284402364358131,0.04245517494286642,0.04218930172363667,0.042084324712540824,0.04208599284025283,0.04234650608818887,0.0429173894262813,0.043815183576987625,0.04499629417094661,0.04623893254831124,0.04744267466652486,0.04833821209434655,0.0,0.0,0.0,0.0,0.0,0.0,0.0,0.0,0.0,0.0,0.0,0.0,0.0,0.0,0.0,0.0,0.0,0.0,0.0,0.0,0.0,0.0,0.0,0.0,0.0,0.0,0.0,0.0,0.0,0.0,0.0,0.0,0.0,0.0,0.0,0.0,0.0,0.0,0.0,0.0,0.0,0.0,0.0,0.0,0.0,0.0,0.0,0.0,0.0,0.0,0.0,0.0,0.0,0.0,0.0,0.0,0.0,0.0,0.0,0.0,0.0,0.0,0.0,0.0,0.0,0.0,0.0,0.0,0.0,0.0,0.0,0.0,0.0,0.0,0.0,0.0,0.0,0.0,0.0,0.0,0.0,0.0,0.0,0.0,0.0,0.0,0.0,0.0,0.0,0.0,0.0,0.0,0.0,0.0,0.0,0.0,0.0,0.0,0.0,0.0,0.0,0.0,0.0,0.0,0.0,0.0,0.0,0.0,0.0,0.0,0.0,0.0,0.0,0.0,0.0,0.0,0.0,0.0,0.0,0.0,0.0,0.0,0.0,0.0,0.0,0.0,0.0,0.0,0.0,0.0,0.0,0.0,0.0,0.0,0.0,0.0,0.0,0.0,0.0,0.0,0.0,0.0,0.0,0.0,0.0,0.0,0.0,0.0,0.0,0.0,0.0,0.0,0.0,0.0,0.0,0.0,0.0,0.0,0.0,0.0,0.0,0.0,0.0,0.0,0.0,0.0,0.0,0.0,0.0,0.0,0.0,0.0,0.0,0.0,0.0,0.0,0.0,0.0,0.0,0.0,0.0,0.0,0.0,0.0,0.0,0.0,0.0,0.0,0.0,0.0,0.0,0.0,0.0,0.0,0.0,0.0,0.0,0.0,0.0,0.0,0.0,0.0,0.0,0.0,0.0,0.0,0.0,0.0,0.0,0.0,0.0,0.0,0.0,0.0,0.0,0.0,0.0,0.0,0.0,0.0,0.0,0.0,0.0,0.0,0.0,0.0,0.0,0.0,0.0,0.0,0.0,0.0,0.0,0.0,0.0,0.0,0.0,0.0,0.0,0.012635407202992843,0.015261774083422082,0.017283444722450962,0.01879964301466325,0.02002426039843918,0.021144965124056492,0.0223052566347932,0.023577066013672723,0.024924428011185933,0.026311124314813694,0.027649123011747316,0.02885380740530379,0.029870687304894485,0.030665407544256243,0.031298986019476345,0.03184296522232803,0.03237500483412724,0.03295301443601826,0.03347387981665916,0.03403836815333696,0.034659804903837986,0.03533516357061063,0.03603534156714205,0.03647890520740467,0.036804433491014074,0.037063997187982874,0.03734057567284428,0.03771117541952091,0.03806016347320315,0.03847562291711624,0.038911547251418536,0.03926506251928514,0.03938700927189979,0.039045003849187215,0.03815792516021463,0.03670661711482785,0.03478380037552152,0.03258368703221607,0.030328002373841274,0.028314725758971728,0.026795698664402564,0.025935816151665774,0.025780364792532345,0.02624635374786179,0.027167419045782903,0.028349686722969548,0.02961943925459742,0.03086114787788026,0.03201082479195365,0.03309393552858817,0.034137515651405624,0.035124133714943086,0.03594193096322818,0.03633452458350715,0.0360251672130305,0.03470238710554085,0.032167265573283865,0.028469713056124692,0.023999736689341182,0.019642061059853125,0.01665669530106551,0.0,0.0,0.0,0.0,0.0,0.0,0.0,0.0,0.0,0.0,0.0,0.0,0.0,0.0,0.0,0.0,0.0,0.0,0.0,0.0,0.0,0.0,0.0,0.0,0.0,0.0,0.0,0.0,0.0,0.0,0.0,0.0,0.0,0.0,0.0,0.0,0.0,0.0,0.0,0.0,0.0,0.0,0.0,0.0,0.0,0.0,0.0,0.0,0.0,0.0,0.0,0.0,0.0,0.0,0.0,0.0,0.0,0.0,0.0,0.0,0.0,0.0,0.0,0.0,0.0,0.0,0.0,0.0,0.0,0.0,0.0,0.0,0.0,0.0,0.0,0.0,0.0,0.0,0.0,0.0,0.0,0.0,0.0,0.0,0.0,0.0,0.0,0.0,0.0,0.0,0.0,0.0,0.0,0.0,0.0,0.0,0.0,0.0,0.0,0.0,0.0,0.0,0.0,0.0,0.0,0.0,0.0,0.0,0.0,0.0,0.0,0.0,0.0,0.0,0.0,0.0,0.0,0.0,0.0,0.0,0.0,0.0,0.0,0.0,0.0,0.0,0.0,0.0,0.0,0.0,0.0,0.0,0.0,0.0,0.0,0.0,0.0,0.0,0.0,0.0,0.0,0.0,0.0,0.0,0.0,0.0,0.0,0.0,0.0,0.0,0.0,0.0,0.0,0.0,0.0,0.0,0.0,0.0,0.0,0.0,0.0,0.0,0.0,0.0,0.0,0.0,0.0,0.0,0.0,0.0,0.0,0.0,0.0,0.0,0.0,0.0,0.0,0.0,0.0,0.0,0.0,0.0,0.0,0.0,0.0,0.0,0.0,0.0,0.0,0.0,0.0,0.0,0.0,0.0,0.0,0.0,0.0,0.0,0.0,0.0,0.0,0.0,0.0,0.0,0.0,0.0,0.0,0.0,0.0,0.0,0.0,0.0,0.0,0.0,0.0,0.0,0.0,0.0,0.0,0.0,0.0,0.0,0.0,0.0,0.0,0.0,0.0,0.0,0.0,0.0,0.0,0.0,0.0,0.0,0.0,0.0,0.0,0.0,0.0
0.04218930172363667,0.042084324712540824,0.04208599284025283,0.04234650608818887,0.0429173894262813,0.043815183576987625,0.04499629417094661,0.04623893254831124,0.04744267466652486,0.04833821209434655,0.04860330609841511,0.04790826362935239,0.045878611722357396,0.04247239500041911,0.03773197318024529,0.03190265637845157,0.02542126369021699,0.018775236287510533,0.012694068789734362,0.007774316986006035,0.004454219678750607,0.0029342637510815857,0.0030664410044706,0.00462413470059128,0.007144217228350668,0.010103357583400578,0.013032854969512234,0.015537141497764936,0.017596852484640445,0.019340709768007593,0.02106281609349202,0.023131446187942876,0.02580421817822443,0.029379762902254875,0.03390551319860149,0.03922736503949062,0.04501779764444763,0.05076341230312324,0.056105223438674766,0.060689323396232384,0.06430309447762947,0.06690414910095238,0.06852881276181187,0.0695029707293189,0.07012945910577499,0.07068807750863634,0.0713738552559505,0.07218826956420989,0.07317292830979845,0.07421182761688747,0.07514921359345277,0.0758435614109486,0.07614433463734151,0.07612750143209554,0.0758802131390218,0.07553383132481774,0.07521932366950042,0.07496004388797332,0.07484766743366453,0.0748300476888123,0.07479277865762393,0.0,0.0,0.0,0.0,0.0,0.0,0.0,0.0,0.0,0.0,0.0,0.0,0.0,0.0,0.0,0.0,0.0,0.0,0.0,0.0,0.0,0.0,0.0,0.0,0.0,0.0,0.0,0.0,0.0,0.0,0.0,0.0,0.0,0.0,0.0,0.0,0.0,0.0,0.0,0.0,0.0,0.0,0.0,0.0,0.0,0.0,0.0,0.0,0.0,0.0,0.0,0.0,0.0,0.0,0.0,0.0,0.0,0.0,0.0,0.0,0.0,0.0,0.0,0.0,0.0,0.0,0.0,0.0,0.0,0.0,0.0,0.0,0.0,0.0,0.0,0.0,0.0,0.0,0.0,0.0,0.0,0.0,0.0,0.0,0.0,0.0,0.0,0.0,0.0,0.0,0.0,0.0,0.0,0.0,0.0,0.0,0.0,0.0,0.0,0.0,0.0,0.0,0.0,0.0,0.0,0.0,0.0,0.0,0.0,0.0,0.0,0.0,0.0,0.0,0.0,0.0,0.0,0.0,0.0,0.0,0.0,0.0,0.0,0.0,0.0,0.0,0.0,0.0,0.0,0.0,0.0,0.0,0.0,0.0,0.0,0.0,0.0,0.0,0.0,0.0,0.0,0.0,0.0,0.0,0.0,0.0,0.0,0.0,0.0,0.0,0.0,0.0,0.0,0.0,0.0,0.0,0.0,0.0,0.0,0.0,0.0,0.0,0.0,0.0,0.0,0.0,0.0,0.0,0.0,0.0,0.0,0.0,0.0,0.0,0.0,0.0,0.0,0.0,0.0,0.0,0.0,0.0,0.0,0.0,0.0,0.0,0.0,0.0,0.0,0.0,0.0,0.0,0.0,0.0,0.0,0.0,0.0,0.0,0.0,0.0,0.0,0.0,0.0,0.0,0.0,0.0,0.0,0.0,0.0,0.0,0.0,0.0,0.0,0.0,0.0,0.0,0.0,0.0,0.0,0.0,0.0,0.0,0.0,0.0,0.0,0.0,0.0,0.0,0.0,0.0,0.0,0.0,0.0,0.0,0.0,0.0,0.0,0.0,0.0,0.035124133714943086,0.03594193096322818,0.03633452458350715,0.0360251672130305,0.03470238710554085,0.032167265573283865,0.028469713056124692,0.023999736689341182,0.019642061059853125,0.01665669530106551,0.016580358439085185,0.020997495149021196,0.031215938665862468,0.048034778856541865,0.07137939442129244,0.10018602375937026,0.13242313872189443,0.1652849404918676,0.19562125973450906,0.22033678344453586,0.23691784141863145,0.24384878229476764,0.24085207692741722,0.2289353078879096,0.2101198558370153,0.18707787381198854,0.16265019338925485,0.13935817250460844,0.11907892847935238,0.1027602457920679,0.09044611257142397,0.08145160448374208,0.07463791871247448,0.06881992395919809,0.06296591149660902,0.056440082383011,0.049087213437268656,0.041163904757633915,0.03330462684475483,0.026221593451985842,0.02055421847037462,0.01672282239079523,0.014809057631584289,0.014681737214210715,0.015929904560271615,0.01800383802777459,0.02033075434366679,0.02236996285367414,0.023833818645773316,0.02456382807554241,0.02456064615818014,0.023938686296538343,0.022814552007137296,0.02142809459583298,0.019933973157335208,0.018437860381964565,0.016996504478309617,0.01557467660540975,0.014216279521834123,0.01289084505754472,0.011536051143679537,0.0,0.0,0.0,0.0,0.0,0.0,0.0,0.0,0.0,0.0,0.0,0.0,0.0,0.0,0.0,0.0,0.0,0.0,0.0,0.0,0.0,0.0,0.0,0.0,0.0,0.0,0.0,0.0,0.0,0.0,0.0,0.0,0.0,0.0,0.0,0.0,0.0,0.0,0.0,0.0,0.0,0.0,0.0,0.0,0.0,0.0,0.0,0.0,0.0,0.0,0.0,0.0,0.0,0.0,0.0,0.0,0.0,0.0,0.0,0.0,0.0,0.0,0.0,0.0,0.0,0.0,0.0,0.0,0.0,0.0,0.0,0.0,0.0,0.0,0.0,0.0,0.0,0.0,0.0,0.0,0.0,0.0,0.0,0.0,0.0,0.0,0.0,0.0,0.0,0.0,0.0,0.0,0.0,0.0,0.0,0.0,0.0,0.0,0.0,0.0,0.0,0.0,0.0,0.0,0.0,0.0,0.0,0.0,0.0,0.0,0.0,0.0,0.0,0.0,0.0,0.0,0.0,0.0,0.0,0.0,0.0,0.0,0.0,0.0,0.0,0.0,0.0,0.0,0.0,0.0,0.0,0.0,0.0,0.0,0.0,0.0,0.0,0.0,0.0,0.0,0.0,0.0,0.0,0.0,0.0,0.0,0.0,0.0,0.0,0.0,0.0,0.0,0.0,0.0,0.0,0.0,0.0,0.0,0.0,0.0,0.0,0.0,0.0,0.0,0.0,0.0,0.0,0.0,0.0,0.0,0.0,0.0,0.0,0.0,0.0,0.0,0.0,0.0,0.0,0.0,0.0,0.0,0.0,0.0,0.0,0.0,0.0,0.0,0.0,0.0,0.0,0.0,0.0,0.0,0.0,0.0,0.0,0.0,0.0,0.0,0.0,0.0,0.0,0.0,0.0,0.0,0.0,0.0,0.0,0.0,0.0,0.0,0.0,0.0,0.0,0.0,0.0,0.0,0.0,0.0,0.0,0.0,0.0,0.0,0.0,0.0,0.0,0.0,0.0,0.0,0.0,0.0,0.0,0.0,0.0,0.0,0.0,0.0,0.0
0.0758435614109486,0.07614433463734151,0.07612750143209554,0.0758802131390218,0.07553383132481774,0.07521932366950042,0.07496004388797332,0.07484766743366453,0.0748300476888123,0.07479277865762393,0.07459508592805222,0.07405200161452521,0.07316640910437124,0.07194601207551389,0.07046652431923764,0.06885378008792303,0.06720720256681069,0.06571812250602357,0.06450252131259541,0.06362837983714635,0.06311247424779383,0.06289223123296761,0.06294044836827718,0.06319557635574541,0.06358922573521932,0.06404814723991373,0.06445372345983923,0.06477895058640255,0.0649824967992366,0.06504749422429247,0.06498382023203363,0.0647739447242782,0.06452366871710957,0.06430011184634511,0.06415553799462455,0.06410906523102185,0.06407489409722528,0.06406090146658028,0.06398008585534386,0.06373351269912865,0.06323431023001008,0.06235791960585534,0.061191368908242144,0.05978138646626354,0.058208934603192146,0.05657489278578702,0.05490362573476337,0.0533775363748975,0.05204650032745773,0.05090860410409702,0.04991547534156396,0.04890498459397645,0.047897596443477845,0.04682673076055545,0.04565409717664203,0.04438413122205121,0.04298650162251928,0.041648541558885054,0.04046863943527328,0.03952407316363501,0.038852787102538464,0.0,0.0,0.0,0.0,0.0,0.0,0.0,0.0,0.0,0.0,0.0,0.0,0.0,0.0,0.0,0.0,0.0,0.0,0.0,0.0,0.0,0.0,0.0,0.0,0.0,0.0,0.0,0.0,0.0,0.0,0.0,0.0,0.0,0.0,0.0,0.0,0.0,0.0,0.0,0.0,0.0,0.0,0.0,0.0,0.0,0.0,0.0,0.0,0.0,0.0,0.0,0.0,0.0,0.0,0.0,0.0,0.0,0.0,0.0,0.0,0.0,0.0,0.0,0.0,0.0,0.0,0.0,0.0,0.0,0.0,0.0,0.0,0.0,0.0,0.0,0.0,0.0,0.0,0.0,0.0,0.0,0.0,0.0,0.0,0.0,0.0,0.0,0.0,0.0,0.0,0.0,0.0,0.0,0.0,0.0,0.0,0.0,0.0,0.0,0.0,0.0,0.0,0.0,0.0,0.0,0.0,0.0,0.0,0.0,0.0,0.0,0.0,0.0,0.0,0.0,0.0,0.0,0.0,0.0,0.0,0.0,0.0,0.0,0.0,0.0,0.0,0.0,0.0,0.0,0.0,0.0,0.0,0.0,0.0,0.0,0.0,0.0,0.0,0.0,0.0,0.0,0.0,0.0,0.0,0.0,0.0,0.0,0.0,0.0,0.0,0.0,0.0,0.0,0.0,0.0,0.0,0.0,0.0,0.0,0.0,0.0,0.0,0.0,0.0,0.0,0.0,0.0,0.0,0.0,0.0,0.0,0.0,0.0,0.0,0.0,0.0,0.0,0.0,0.0,0.0,0.0,0.0,0.0,0.0,0.0,0.0,0.0,0.0,0.0,0.0,0.0,0.0,0.0,0.0,0.0,0.0,0.0,0.0,0.0,0.0,0.0,0.0,0.0,0.0,0.0,0.0,0.0,0.0,0.0,0.0,0.0,0.0,0.0,0.0,0.0,0.0,0.0,0.0,0.0,0.0,0.0,0.0,0.0,0.0,0.0,0.0,0.0,0.0,0.0,0.0,0.0,0.0,0.0,0.0,0.0,0.0,0.0,0.0,0.0,0.023938686296538343,0.022814552007137296,0.02142809459583298,0.019933973157335208,0.018437860381964565,0.016996504478309617,0.01557467660540975,0.014216279521834123,0.01289084505754472,0.011536051143679537,0.010054322660080887,0.008270480954682375,0.006106689463320765,0.00348044429471889,0.0003861454678978526,-0.003073480607658245,-0.006790445029680549,-0.010286385065018446,-0.013206992918344044,-0.015244011389542407,-0.016201283875397376,-0.016218571382107066,-0.015162500551884358,-0.013337267465777673,-0.011146086358648302,-0.008974033859792886,-0.007218931975447624,-0.0057669535848230416,-0.004522570740806561,-0.003271216303417166,-0.0017467838441883982,0.00019619228345384181,0.002820167182233657,0.006138831096084712,0.010016803521419086,0.014203108810099258,0.01831438906709619,0.022137379008464672,0.025449555597594167,0.028126671133964533,0.03015300146438691,0.03155249980142463,0.032525884411101415,0.03326290179385483,0.03393989913551505,0.03468333348040645,0.035493847904287425,0.03641516174209849,0.03739615735703084,0.03835702923908154,0.039213665496425985,0.039843684484121164,0.040273424278279686,0.04052397735311455,0.04064932335994146,0.04072067491814267,0.04076233580373358,0.04088378371244633,0.041143473419726566,0.04158310014562816,0.04222768433985936,0.0,0.0,0.0,0.0,0.0,0.0,0.0,0.0,0.0,0.0,0.0,0.0,0.0,0.0,0.0,0.0,0.0,0.0,0.0,0.0,0.0,0.0,0.0,0.0,0.0,0.0,0.0,0.0,0.0,0.0,0.0,0.0,0.0,0.0,0.0,0.0,0.0,0.0,0.0,0.0,0.0,0.0,0.0,0.0,0.0,0.0,0.0,0.0,0.0,0.0,0.0,0.0,0.0,0.0,0.0,0.0,0.0,0.0,0.0,0.0,0.0,0.0,0.0,0.0,0.0,0.0,0.0,0.0,0.0,0.0,0.0,0.0,0.0,0.0,0.0,0.0,0.0,0.0,0.0,0.0,0.0,0.0,0.0,0.0,0.0,0.0,0.0,0.0,0.0,0.0,0.0,0.0,0.0,0.0,0.0,0.0,0.0,0.0,0.0,0.0,0.0,0.0,0.0,0.0,0.0,0.0,0.0,0.0,0.0,0.0,0.0,0.0,0.0,0.0,0.0,0.0,0.0,0.0,0.0,0.0,0.0,0.0,0.0,0.0,0.0,0.0,0.0,0.0,0.0,0.0,0.0,0.0,0.0,0.0,0.0,0.0,0.0,0.0,0.0,0.0,0.0,0.0,0.0,0.0,0.0,0.0,0.0,0.0,0.0,0.0,0.0,0.0,0.0,0.0,0.0,0.0,0.0,0.0,0.0,0.0,0.0,0.0,0.0,0.0,0.0,0.0,0.0,0.0,0.0,0.0,0.0,0.0,0.0,0.0,0.0,0.0,0.0,0.0,0.0,0.0,0.0,0.0,0.0,0.0,0.0,0.0,0.0,0.0,0.0,0.0,0.0,0.0,0.0,0.0,0.0,0.0,0.0,0.0,0.0,0.0,0.0,0.0,0.0,0.0,0.0,0.0,0.0,0.0,0.0,0.0,0.0,0.0,0.0,0.0,0.0,0.0,0.0,0.0,0.0,0.0,0.0,0.0,0.0,0.0,0.0,0.0,0.0,0.0,0.0,0.0,0.0,0.0,0.0,0.0,0.0,0.0,0.0,0.0,0.0
0.04890498459397645,0.047897596443477845,0.04682673076055545,0.04565409717664203,0.04438413122205121,0.04298650162251928,0.041648541558885054,0.04046863943527328,0.03952407316363501,0.038852787102538464,0.03836842296323676,0.038116970291092026,0.0380151255431639,0.037964747626503564,0.0378823805823794,0.03765033488467053,0.03737052692632844,0.03709984737492024,0.03691911633586697,0.03691197406222034,0.037072567393173134,0.03751828016208319,0.03823486157194034,0.039158621332179525,0.040191386390593054,0.04112630365379861,0.04197353599359705,0.042669962026866716,0.043175895097561395,0.04347079871896577,0.04342588906344663,0.043178971481069514,0.04277064656545387,0.042250214358249376,0.04167363350819021,0.041066963923921375,0.04054666352084436,0.040153239114389984,0.03991809294848499,0.03987646829741465,0.04012767740124189,0.040697673229890936,0.04155751660400647,0.04263321969723183,0.0438197047072534,0.0449930847969996,0.046075261361343885,0.04695303720758797,0.047534437569614243,0.047762941117092166,0.0475560755863503,0.04702672621968975,0.04624983991293827,0.04531860294034515,0.04433015124801272,0.043300220362182236,0.04238764026103517,0.04166121276674702,0.04116207869390509,0.04089736137893327,0.04075772999792808,0.0,0.0,0.0,0.0,0.0,0.0,0.0,0.0,0.0,0.0,0.0,0.0,0.0,0.0,0.0,0.0,0.0,0.0,0.0,0.0,0.0,0.0,0.0,0.0,0.0,0.0,0.0,0.0,0.0,0.0,0.0,0.0,0.0,0.0,0.0,0.0,0.0,0.0,0.0,0.0,0.0,0.0,0.0,0.0,0.0,0.0,0.0,0.0,0.0,0.0,0.0,0.0,0.0,0.0,0.0,0.0,0.0,0.0,0.0,0.0,0.0,0.0,0.0,0.0,0.0,0.0,0.0,0.0,0.0,0.0,0.0,0.0,0.0,0.0,0.0,0.0,0.0,0.0,0.0,0.0,0.0,0.0,0.0,0.0,0.0,0.0,0.0,0.0,0.0,0.0,0.0,0.0,0.0,0.0,0.0,0.0,0.0,0.0,0.0,0.0,0.0,0.0,0.0,0.0,0.0,0.0,0.0,0.0,0.0,0.0,0.0,0.0,0.0,0.0,0.0,0.0,0.0,0.0,0.0,0.0,0.0,0.0,0.0,0.0,0.0,0.0,0.0,0.0,0.0,0.0,0.0,0.0,0.0,0.0,0.0,0.0,0.0,0.0,0.0,0.0,0.0,0.0,0.0,0.0,0.0,0.0,0.0,0.0,0.0,0.0,0.0,0.0,0.0,0.0,0.0,0.0,0.0,0.0,0.0,0.0,0.0,0.0,0.0,0.0,0.0,0.0,0.0,0.0,0.0,0.0,0.0,0.0,0.0,0.0,0.0,0.0,0.0,0.0,0.0,0.0,0.0,0.0,0.0,0.0,0.0,0.0,0.0,0.0,0.0,0.0,0.0,0.0,0.0,0.0,0.0,0.0,0.0,0.0,0.0,0.0,0.0,0.0,0.0,0.0,0.0,0.0,0.0,0.0,0.0,0.0,0.0,0.0,0.0,0.0,0.0,0.0,0.0,0.0,0.0,0.0,0.0,0.0,0.0,0.0,0.0,0.0,0.0,0.0,0.0,0.0,0.0,0.0,0.0,0.0,0.0,0.0,0.0,0.0,0.0,0.039843684484121164,0.040273424278279686,0.04052397735311455,0.04064932335994146,0.04072067491814267,0.04076233580373358,0.04088378371244633,0.041143473419726566,0.04158310014562816,0.04222768433985936,0.0430479933652847,0.04407801366748028,0.04531087094590862,0.0467189840021805,0.048246187735320994,0.049773455242040035,0.05122030456598504,0.0524933728892523,0.053520416829137565,0.054264691130782625,0.05470639936457226,0.05490968363820802,0.05497291851543986,0.0550048835239534,0.05509144635122255,0.05522277913307554,0.0554185410302953,0.05564128843902498,0.05583045807820619,0.055918201571662475,0.05577782504171559,0.05543798052461727,0.05493677824044283,0.05434633529375372,0.05374757861531401,0.05304905714643524,0.05243209398576097,0.05196759706807048,0.05169029155218008,0.051576955658965556,0.051298199361594646,0.050963060838916295,0.05055920208889891,0.05011494890660761,0.04968271010893805,0.04916915449421292,0.048730388215504905,0.04838526679678113,0.04809999736948604,0.04778846455891055,0.04729489368199433,0.046554152337808095,0.04549384012578005,0.0441147668906117,0.04250769827171391,0.04080668735933282,0.03927360437900537,0.03810424173492465,0.037419150242857226,0.037226931984517264,0.03738273178615274,0.0,0.0,0.0,0.0,0.0,0.0,0.0,0.0,0.0,0.0,0.0,0.0,0.0,0.0,0.0,0.0,0.0,0.0,0.0,0.0,0.0,0.0,0.0,0.0,0.0,0.0,0.0,0.0,0.0,0.0,0.0,0.0,0.0,0.0,0.0,0.0,0.0,0.0,0.0,0.0,0.0,0.0,0.0,0.0,0.0,0.0,0.0,0.0,0.0,0.0,0.0,0.0,0.0,0.0,0.0,0.0,0.0,0.0,0.0,0.0,0.0,0.0,0.0,0.0,0.0,0.0,0.0,0.0,0.0,0.0,0.0,0.0,0.0,0.0,0.0,0.0,0.0,0.0,0.0,0.0,0.0,0.0,0.0,0.0,0.0,0.0,0.0,0.0,0.0,0.0,0.0,0.0,0.0,0.0,0.0,0.0,0.0,0.0,0.0,0.0,0.0,0.0,0.0,0.0,0.0,0.0,0.0,0.0,0.0,0.0,0.0,0.0,0.0,0.0,0.0,0.0,0.0,0.0,0.0,0.0,0.0,0.0,0.0,0.0,0.0,0.0,0.0,0.0,0.0,0.0,0.0,0.0,0.0,0.0,0.0,0.0,0.0,0.0,0.0,0.0,0.0,0.0,0.0,0.0,0.0,0.0,0.0,0.0,0.0,0.0,0.0,0.0,0.0,0.0,0.0,0.0,0.0,0.0,0.0,0.0,0.0,0.0,0.0,0.0,0.0,0.0,0.0,0.0,0.0,0.0,0.0,0.0,0.0,0.0,0.0,0.0,0.0,0.0,0.0,0.0,0.0,0.0,0.0,0.0,0.0,0.0,0.0,0.0,0.0,0.0,0.0,0.0,0.0,0.0,0.0,0.0,0.0,0.0,0.0,0.0,0.0,0.0,0.0,0.0,0.0,0.0,0.0,0.0,0.0,0.0,0.0,0.0,0.0,0.0,0.0,0.0,0.0,0.0,0.0,0.0,0.0,0.0,0.0,0.0,0.0,0.0,0.0,0.0,0.0,0.0,0.0,0.0,0.0,0.0,0.0,0.0,0.0,0.0,0.0
0.04702672621968975,0.04624983991293827,0.04531860294034515,0.04433015124801272,0.043300220362182236,0.04238764026103517,0.04166121276674702,0.04116207869390509,0.04089736137893327,0.04075772999792808,0.04076100962353522,0.040829368617677005,0.0408706553389976,0.040801946479240465,0.04050384238412559,0.040106221364869854,0.039787885436569165,0.03985281849684206,0.040706531579547664,0.04271628367964539,0.046371447465984074,0.05193667023468996,0.05940011817795416,0.06837405984685264,0.07796785086247839,0.08705290429373497,0.09413895825651696,0.09762530827801565,0.09604158811415764,0.08823836770874331,0.07386143981896642,0.05329458985178247,0.027781011789692757,-0.0006622952669713257,-0.029539631304860377,-0.05597958089548045,-0.07734552210203458,-0.09155135975270738,-0.0973661786481003,-0.09465479690906888,-0.08415542930081216,-0.06753219702477954,-0.04701687732911145,-0.025042162959761523,-0.003943568224813645,0.01457900093469443,0.0294298289564873,0.04023884545497085,0.047281852728577246,0.05122601017056418,0.05313452754539205,0.054001209422153106,0.054635316613618236,0.055550878248251216,0.05687007320994542,0.058601317557916956,0.06051620792872023,0.06233326437396631,0.06381990376792519,0.06478914915690448,0.065337077076107,0.0,0.0,0.0,0.0,0.0,0.0,0.0,0.0,0.0,0.0,0.0,0.0,0.0,0.0,0.0,0.0,0.0,0.0,0.0,0.0,0.0,0.0,0.0,0.0,0.0,0.0,0.0,0.0,0.0,0.0,0.0,0.0,0.0,0.0,0.0,0.0,0.0,0.0,0.0,0.0,0.0,0.0,0.0,0.0,0.0,0.0,0.0,0.0,0.0,0.0,0.0,0.0,0.0,0.0,0.0,0.0,0.0,0.0,0.0,0.0,0.0,0.0,0.0,0.0,0.0,0.0,0.0,0.0,0.0,0.0,0.0,0.0,0.0,0.0,0.0,0.0,0.0,0.0,0.0,0.0,0.0,0.0,0.0,0.0,0.0,0.0,0.0,0.0,0.0,0.0,0.0,0.0,0.0,0.0,0.0,0.0,0.0,0.0,0.0,0.0,0.0,0.0,0.0,0.0,0.0,0.0,0.0,0.0,0.0,0.0,0.0,0.0,0.0,0.0,0.0,0.0,0.0,0.0,0.0,0.0,0.0,0.0,0.0,0.0,0.0,0.0,0.0,0.0,0.0,0.0,0.0,0.0,0.0,0.0,0.0,0.0,0.0,0.0,0.0,0.0,0.0,0.0,0.0,0.0,0.0,0.0,0.0,0.0,0.0,0.0,0.0,0.0,0.0,0.0,0.0,0.0,0.0,0.0,0.0,0.0,0.0,0.0,0.0,0.0,0.0,0.0,0.0,0.0,0.0,0.0,0.0,0.0,0.0,0.0,0.0,0.0,0.0,0.0,0.0,0.0,0.0,0.0,0.0,0.0,0.0,0.0,0.0,0.0,0.0,0.0,0.0,0.0,0.0,0.0,0.0,0.0,0.0,0.0,0.0,0.0,0.0,0.0,0.0,0.0,0.0,0.0,0.0,0.0,0.0,0.0,0.0,0.0,0.0,0.0,0.0,0.0,0.0,0.0,0.0,0.0,0.0,0.0,0.0,0.0,0.0,0.0,0.0,0.0,0.0,0.0,0.0,0.0,0.0,0.0,0.0,0.0,0.0,0.0,0.0,0.046554152337808095,0.04549384012578005,0.0441147668906117,0.04250769827171391,0.04080668735933282,0.03927360437900537,0.03810424173492465,0.037419150242857226,0.037226931984517264,0.03738273178615274,0.03773623995024898,0.038051887635645446,0.0381310702773482,0.03788538484715096,0.03734821564851793,0.03680205351389939,0.0365869373175118,0.03706944638134105,0.03854383770978465,0.0411043679418595,0.044715332011257866,0.04905591012678835,0.053649510828668714,0.058004324809402374,0.06175335515364929,0.06494669620756145,0.068003615292072,0.07178059665257036,0.0774648119090201,0.086312680199939,0.09946234381568589,0.11744248882002963,0.13995518601125084,0.16574180309414285,0.19261120196300108,0.21778166660324114,0.23816704524589052,0.25093609701053415,0.2540187942792656,0.2464838993618855,0.22878746821058424,0.20261924364390613,0.17066725175233213,0.13617794194446095,0.10242589267589661,0.0722831867286002,0.04774494999293235,0.029778928407204988,0.01833708960965629,0.012524676610983117,0.010959485809233215,0.012010709353009753,0.014152891768034671,0.01620274448646036,0.017414798109024014,0.017586092213229102,0.016842116159186345,0.015531855341548677,0.014068399363264424,0.012753557179680235,0.011831394890464154,0.0,0.0,0.0,0.0,0.0,0.0,0.0,0.0,0.0,0.0,0.0,0.0,0.0,0.0,0.0,0.0,0.0,0.0,0.0,0.0,0.0,0.0,0.0,0.0,0.0,0.0,0.0,0.0,0.0,0.0,0.0,0.0,0.0,0.0,0.0,0.0,0.0,0.0,0.0,0.0,0.0,0.0,0.0,0.0,0.0,0.0,0.0,0.0,0.0,0.0,0.0,0.0,0.0,0.0,0.0,0.0,0.0,0.0,0.0,0.0,0.0,0.0,0.0,0.0,0.0,0.0,0.0,0.0,0.0,0.0,0.0,0.0,0.0,0.0,0.0,0.0,0.0,0.0,0.0,0.0,0.0,0.0,0.0,0.0,0.0,0.0,0.0,0.0,0.0,0.0,0.0,0.0,0.0,0.0,0.0,0.0,0.0,0.0,0.0,0.0,0.0,0.0,0.0,0.0,0.0,0.0,0.0,0.0,0.0,0.0,0.0,0.0,0.0,0.0,0.0,0.0,0.0,0.0,0.0,0.0,0.0,0.0,0.0,0.0,0.0,0.0,0.0,0.0,0.0,0.0,0.0,0.0,0.0,0.0,0.0,0.0,0.0,0.0,0.0,0.0,0.0,0.0,0.0,0.0,0.0,0.0,0.0,0.0,0.0,0.0,0.0,0.0,0.0,0.0,0.0,0.0,0.0,0.0,0.0,0.0,0.0,0.0,0.0,0.0,0.0,0.0,0.0,0.0,0.0,0.0,0.0,0.0,0.0,0.0,0.0,0.0,0.0,0.0,0.0,0.0,0.0,0.0,0.0,0.0,0.0,0.0,0.0,0.0,0.0,0.0,0.0,0.0,0.0,0.0,0.0,0.0,0.0,0.0,0.0,0.0,0.0,0.0,0.0,0.0,0.0,0.0,0.0,0.0,0.0,0.0,0.0,0.0,0.0,0.0,0.0,0.0,0.0,0.0,0.0,0.0,0.0,0.0,0.0,0.0,0.0,0.0,0.0,0.0,0.0,0.0,0.0,0.0,0.0,0.0,0.0,0.0,0.0,0.0,0.0
0.054001209422153106,0.054635316613618236,0.055550878248251216,0.05687007320994542,0.058601317557916956,0.06051620792872023,0.06233326437396631,0.06381990376792519,0.06478914915690448,0.065337077076107,0.06560457799410847,0.06578287697868221,0.06604380205098383,0.06641641629389354,0.06696165693274837,0.06757335547796266,0.06807385099659144,0.06826770033404245,0.06793865846453821,0.06708695899103494,0.06575597429988,0.06408106970759878,0.06225540834054466,0.06041207865274764,0.058817392206385065,0.05758251063473139,0.05673732491516195,0.05624311634704688,0.055935733551928477,0.05583777811698867,0.0558607507195557,0.055930158151340184,0.0559962810727803,0.056000762152279476,0.05596390539787682,0.05590077807064594,0.0558268143206215,0.055749445798513715,0.05568264615392135,0.055557508149709806,0.05540074518494991,0.0552511308726707,0.05513757371961365,0.05504140723219326,0.05494676152089611,0.0548361791600379,0.054696749657881696,0.054525701640713596,0.054271333680616624,0.05402822025139866,0.053826445574965694,0.0536859226402098,0.05360820432776916,0.05350742522892345,0.05342240555508936,0.053299589875662766,0.0530753115837552,0.052690707014824735,0.05203804887761191,0.05119584667671585,0.05018977398876276,0.0,0.0,0.0,0.0,0.0,0.0,0.0,0.0,0.0,0.0,0.0,0.0,0.0,0.0,0.0,0.0,0.0,0.0,0.0,0.0,0.0,0.0,0.0,0.0,0.0,0.0,0.0,0.0,0.0,0.0,0.0,0.0,0.0,0.0,0.0,0.0,0.0,0.0,0.0,0.0,0.0,0.0,0.0,0.0,0.0,0.0,0.0,0.0,0.0,0.0,0.0,0.0,0.0,0.0,0.0,0.0,0.0,0.0,0.0,0.0,0.0,0.0,0.0,0.0,0.0,0.0,0.0,0.0,0.0,0.0,0.0,0.0,0.0,0.0,0.0,0.0,0.0,0.0,0.0,0.0,0.0,0.0,0.0,0.0,0.0,0.0,0.0,0.0,0.0,0.0,0.0,0.0,0.0,0.0,0.0,0.0,0.0,0.0,0.0,0.0,0.0,0.0,0.0,0.0,0.0,0.0,0.0,0.0,0.0,0.0,0.0,0.0,0.0,0.0,0.0,0.0,0.0,0.0,0.0,0.0,0.0,0.0,0.0,0.0,0.0,0.0,0.0,0.0,0.0,0.0,0.0,0.0,0.0,0.0,0.0,0.0,0.0,0.0,0.0,0.0,0.0,0.0,0.0,0.0,0.0,0.0,0.0,0.0,0.0,0.0,0.0,0.0,0.0,0.0,0.0,0.0,0.0,0.0,0.0,0.0,0.0,0.0,0.0,0.0,0.0,0.0,0.0,0.0,0.0,0.0,0.0,0.0,0.0,0.0,0.0,0.0,0.0,0.0,0.0,0.0,0.0,0.0,0.0,0.0,0.0,0.0,0.0,0.0,0.0,0.0,0.0,0.0,0.0,0.0,0.0,0.0,0.0,0.0,0.0,0.0,0.0,0.0,0.0,0.0,0.0,0.0,0.0,0.0,0.0,0.0,0.0,0.0,0.0,0.0,0.0,0.0,0.0,0.0,0.0,0.0,0.0,0.0,0.0,0.0,0.0,0.0,0.0,0.0,0.0,0.0,0.0,0.0,0.0,0.0,0.0,0.0,0.0,0.0,0.0,0.012010709353009753,0.014152891768034671,0.01620274448646036,0.017414798109024014,0.017586092213229102,0.016842116159186345,0.015531855341548677,0.014068399363264424,0.012753557179680235,0.011831394890464154,0.011321653168884156,0.011100442339585771,0.010970844300488166,0.01069771275615065,0.010219860748085003,0.009526112284517317,0.008697944942884117,0.007873289237711908,0.00714655411569424,0.0066811402052553885,0.006515032035081145,0.0066073062059757125,0.0068552460042091146,0.0070666900412636405,0.007180631693157944,0.00707720936803451,0.006655729494784899,0.005837202770706321,0.004500034604080648,0.0027075910121043666,0.00046555910873095956,-0.0021716203040038377,-0.005080107372022847,-0.008180263048902745,-0.011034969870321298,-0.013395526707947202,-0.015077329109529013,-0.015997417514752015,-0.016368679204821174,-0.016075185276040037,-0.015384257127011376,-0.014607025343150701,-0.01399532085139983,-0.01377178419481914,-0.013707778945541612,-0.013587200393938095,-0.013115048391571687,-0.011993224188047642,-0.01004921977113603,-0.007141876136372804,-0.0033295846448795673,0.0011745397965709176,0.006040632526721459,0.010837107702948615,0.015245311170296117,0.01899518884557432,0.021941524944375405,0.02407448924149056,0.025459238687182726,0.02632993530548592,0.026922981159616825,0.0,0.0,0.0,0.0,0.0,0.0,0.0,0.0,0.0,0.0,0.0,0.0,0.0,0.0,0.0,0.0,0.0,0.0,0.0,0.0,0.0,0.0,0.0,0.0,0.0,0.0,0.0,0.0,0.0,0.0,0.0,0.0,0.0,0.0,0.0,0.0,0.0,0.0,0.0,0.0,0.0,0.0,0.0,0.0,0.0,0.0,0.0,0.0,0.0,0.0,0.0,0.0,0.0,0.0,0.0,0.0,0.0,0.0,0.0,0.0,0.0,0.0,0.0,0.0,0.0,0.0,0.0,0.0,0.0,0.0,0.0,0.0,0.0,0.0,0.0,0.0,0.0,0.0,0.0,0.0,0.0,0.0,0.0,0.0,0.0,0.0,0.0,0.0,0.0,0.0,0.0,0.0,0.0,0.0,0.0,0.0,0.0,0.0,0.0,0.0,0.0,0.0,0.0,0.0,0.0,0.0,0.0,0.0,0.0,0.0,0.0,0.0,0.0,0.0,0.0,0.0,0.0,0.0,0.0,0.0,0.0,0.0,0.0,0.0,0.0,0.0,0.0,0.0,0.0,0.0,0.0,0.0,0.0,0.0,0.0,0.0,0.0,0.0,0.0,0.0,0.0,0.0,0.0,0.0,0.0,0.0,0.0,0.0,0.0,0.0,0.0,0.0,0.0,0.0,0.0,0.0,0.0,0.0,0.0,0.0,0.0,0.0,0.0,0.0,0.0,0.0,0.0,0.0,0.0,0.0,0.0,0.0,0.0,0.0,0.0,0.0,0.0,0.0,0.0,0.0,0.0,0.0,0.0,0.0,0.0,0.0,0.0,0.0,0.0,0.0,0.0,0.0,0.0,0.0,0.0,0.0,0.0,0.0,0.0,0.0,0.0,0.0,0.0,0.0,0.0,0.0,0.0,0.0,0.0,0.0,0.0,0.0,0.0,0.0,0.0,0.0,0.0,0.0,0.0,0.0,0.0,0.0,0.0,0.0,0.0,0.0,0.0,0.0,0.0,0.0,0.0,0.0,0.0,0.0,0.0,0.0,0.0,0.0,0.0
0.0536859226402098,0.05360820432776916,0.05350742522892345,0.05342240555508936,0.053299589875662766,0.0530753115837552,0.052690707014824735,0.05203804887761191,0.05119584667671585,0.05018977398876276,0.049068648206208786,0.04789781695631023,0.04667873325514756,0.04556472671024365,0.04459923975809984,0.04378881607249326,0.043104926897795715,0.042423002258313455,0.04177156976708902,0.04109497185174231,0.04035336651398002,0.03953740083571654,0.03860795500596769,0.03771122219433045,0.03692778599772123,0.03633080094205202,0.03596987477363736,0.03579762718331322,0.03587130778930609,0.03613871388411518,0.03652192656722583,0.03693680892887016,0.03726764528617552,0.03753412597209931,0.03771932513893638,0.03783186111658008,0.03790374308410297,0.03795548403944552,0.038083929163036066,0.03831040264835137,0.03862595130321022,0.03899668571478747,0.039336713233081314,0.03965589580194014,0.03990785905659682,0.04005747528696114,0.040089628345471966,0.039961732906394716,0.03976795619276152,0.03954119636734148,0.039307396907184385,0.03908205233616732,0.03880493685183731,0.03855910198285424,0.038351700438663275,0.038188212767325806,0.038074476326862686,0.037934063207116064,0.03786709457208938,0.037886724179079095,0.03799141118779686,0.0,0.0,0.0,0.0,0.0,0.0,0.0,0.0,0.0,0.0,0.0,0.0,0.0,0.0,0.0,0.0,0.0,0.0,0.0,0.0,0.0,0.0,0.0,0.0,0.0,0.0,0.0,0.0,0.0,0.0,0.0,0.0,0.0,0.0,0.0,0.0,0.0,0.0,0.0,0.0,0.0,0.0,0.0,0.0,0.0,0.0,0.0,0.0,0.0,0.0,0.0,0.0,0.0,0.0,0.0,0.0,0.0,0.0,0.0,0.0,0.0,0.0,0.0,0.0,0.0,0.0,0.0,0.0,0.0,0.0,0.0,0.0,0.0,0.0,0.0,0.0,0.0,0.0,0.0,0.0,0.0,0.0,0.0,0.0,0.0,0.0,0.0,0.0,0.0,0.0,0.0,0.0,0.0,0.0,0.0,0.0,0.0,0.0,0.0,0.0,0.0,0.0,0.0,0.0,0.0,0.0,0.0,0.0,0.0,0.0,0.0,0.0,0.0,0.0,0.0,0.0,0.0,0.0,0.0,0.0,0.0,0.0,0.0,0.0,0.0,0.0,0.0,0.0,0.0,0.0,0.0,0.0,0.0,0.0,0.0,0.0,0.0,0.0,0.0,0.0,0.0,0.0,0.0,0.0,0.0,0.0,0.0,0.0,0.0,0.0,0.0,0.0,0.0,0.0,0.0,0.0,0.0,0.0,0.0,0.0,0.0,0.0,0.0,0.0,0.0,0.0,0.0,0.0,0.0,0.0,0.0,0.0,0.0,0.0,0.0,0.0,0.0,0.0,0.0,0.0,0.0,0.0,0.0,0.0,0.0,0.0,0.0,0.0,0.0,0.0,0.0,0.0,0.0,0.0,0.0,0.0,0.0,0.0,0.0,0.0,0.0,0.0,0.0,0.0,0.0,0.0,0.0,0.0,0.0,0.0,0.0,0.0,0.0,0.0,0.0,0.0,0.0,0.0,0.0,0.0,0.0,0.0,0.0,0.0,0.0,0.0,0.0,0.0,0.0,0.0,0.0,0.0,0.0,0.0,0.0,0.0,0.0,0.0,0.0,0.0011745397965709176,0.006040632526721459,0.010837107702948615,0.015245311170296117,0.01899518884557432,0.021941524944375405,0.02407448924149056,0.025459238687182726,0.02632993530548592,0.026922981159616825,0.02745667613061882,0.02808633426734765,0.028839962362328934,0.029727548881637086,0.030658018863091597,0.0314961954880368,0.032098179293204736,0.032314372961233795,0.03211196623661604,0.031507229645174856,0.030585425679504126,0.029484523951025035,0.028346029819223545,0.027367448478324945,0.026713886625485374,0.026518766489247496,0.026870868608845334,0.027786788909923556,0.029265908783213095,0.031237896261401246,0.0335794296086931,0.0361219899038105,0.03854982310332972,0.04077140957041567,0.04268122123688104,0.04422305886474529,0.045373111198775656,0.04590392822278189,0.04601121021087865,0.045840202350115905,0.04556650929671044,0.045346856325740675,0.04512830380647819,0.04504063560973078,0.045085807536705824,0.04521137009409041,0.04532060145270569,0.045224855729299275,0.04488055046132905,0.04427647430093852,0.04347355720131085,0.042586350373101024,0.041696662731675736,0.04095636058628963,0.040428945107265815,0.040095313697903284,0.03985209929349635,0.03951089948946432,0.0389378405058564,0.038016266868822694,0.03672639092058299,0.0,0.0,0.0,0.0,0.0,0.0,0.0,0.0,0.0,0.0,0.0,0.0,0.0,0.0,0.0,0.0,0.0,0.0,0.0,0.0,0.0,0.0,0.0,0.0,0.0,0.0,0.0,0.0,0.0,0.0,0.0,0.0,0.0,0.0,0.0,0.0,0.0,0.0,0.0,0.0,0.0,0.0,0.0,0.0,0.0,0.0,0.0,0.0,0.0,0.0,0.0,0.0,0.0,0.0,0.0,0.0,0.0,0.0,0.0,0.0,0.0,0.0,0.0,0.0,0.0,0.0,0.0,0.0,0.0,0.0,0.0,0.0,0.0,0.0,0.0,0.0,0.0,0.0,0.0,0.0,0.0,0.0,0.0,0.0,0.0,0.0,0.0,0.0,0.0,0.0,0.0,0.0,0.0,0.0,0.0,0.0,0.0,0.0,0.0,0.0,0.0,0.0,0.0,0.0,0.0,0.0,0.0,0.0,0.0,0.0,0.0,0.0,0.0,0.0,0.0,0.0,0.0,0.0,0.0,0.0,0.0,0.0,0.0,0.0,0.0,0.0,0.0,0.0,0.0,0.0,0.0,0.0,0.0,0.0,0.0,0.0,0.0,0.0,0.0,0.0,0.0,0.0,0.0,0.0,0.0,0.0,0.0,0.0,0.0,0.0,0.0,0.0,0.0,0.0,0.0,0.0,0.0,0.0,0.0,0.0,0.0,0.0,0.0,0.0,0.0,0.0,0.0,0.0,0.0,0.0,0.0,0.0,0.0,0.0,0.0,0.0,0.0,0.0,0.0,0.0,0.0,0.0,0.0,0.0,0.0,0.0,0.0,0.0,0.0,0.0,0.0,0.0,0.0,0.0,0.0,0.0,0.0,0.0,0.0,0.0,0.0,0.0,0.0,0.0,0.0,0.0,0.0,0.0,0.0,0.0,0.0,0.0,0.0,0.0,0.0,0.0,0.0,0.0,0.0,0.0,0.0,0.0,0.0,0.0,0.0,0.0,0.0,0.0,0.0,0.0,0.0,0.0,0.0,0.0,0.0,0.0,0.0,0.0,0.0
0.03908205233616732,0.03880493685183731,0.03855910198285424,0.038351700438663275,0.038188212767325806,0.038074476326862686,0.037934063207116064,0.03786709457208938,0.037886724179079095,0.03799141118779686,0.038160349864877784,0.03827415029901687,0.0383720680980671,0.03841658818364327,0.0383783957387075,0.03824622340289288,0.03795691413718672,0.037637205530686106,0.03736248532162662,0.03720593009589324,0.03721030827514638,0.037284531572438155,0.037416012215808744,0.03744064476528616,0.037120037115883235,0.0361743931473999,0.034263322824631876,0.0312774195617811,0.027186565725161767,0.022142046017506023,0.01648128257461115,0.010618998366930034,0.005208242418865387,0.0008259631017764473,-0.002066649570424038,-0.003211827998177602,-0.0026796861137706883,-0.0006273083142387839,0.0025326610812724326,0.006289381667019212,0.010141289173112987,0.01362237276982594,0.016603637438129464,0.019097113547717537,0.021293822184926092,0.023494406344403578,0.025946112514835896,0.02897771855062298,0.03271357213178293,0.037103787690540145,0.041930650804846065,0.046783600973654124,0.0513496529982205,0.0552809522048912,0.05832505073875732,0.060366895265288545,0.06137153846278796,0.06157732680282222,0.06124486593700017,0.06065881527383112,0.060068944656949286,0.0,0.0,0.0,0.0,0.0,0.0,0.0,0.0,0.0,0.0,0.0,0.0,0.0,0.0,0.0,0.0,0.0,0.0,0.0,0.0,0.0,0.0,0.0,0.0,0.0,0.0,0.0,0.0,0.0,0.0,0.0,0.0,0.0,0.0,0.0,0.0,0.0,0.0,0.0,0.0,0.0,0.0,0.0,0.0,0.0,0.0,0.0,0.0,0.0,0.0,0.0,0.0,0.0,0.0,0.0,0.0,0.0,0.0,0.0,0.0,0.0,0.0,0.0,0.0,0.0,0.0,0.0,0.0,0.0,0.0,0.0,0.0,0.0,0.0,0.0,0.0,0.0,0.0,0.0,0.0,0.0,0.0,0.0,0.0,0.0,0.0,0.0,0.0,0.0,0.0,0.0,0.0,0.0,0.0,0.0,0.0,0.0,0.0,0.0,0.0,0.0,0.0,0.0,0.0,0.0,0.0,0.0,0.0,0.0,0.0,0.0,0.0,0.0,0.0,0.0,0.0,0.0,0.0,0.0,0.0,0.0,0.0,0.0,0.0,0.0,0.0,0.0,0.0,0.0,0.0,0.0,0.0,0.0,0.0,0.0,0.0,0.0,0.0,0.0,0.0,0.0,0.0,0.0,0.0,0.0,0.0,0.0,0.0,0.0,0.0,0.0,0.0,0.0,0.0,0.0,0.0,0.0,0.0,0.0,0.0,0.0,0.0,0.0,0.0,0.0,0.0,0.0,0.0,0.0,0.0,0.0,0.0,0.0,0.0,0.0,0.0,0.0,0.0,0.0,0.0,0.0,0.0,0.0,0.0,0.0,0.0,0.0,0.0,0.0,0.0,0.0,0.0,0.0,0.0,0.0,0.0,0.0,0.0,0.0,0.0,0.0,0.0,0.0,0.0,0.0,0.0,0.0,0.0,0.0,0.0,0.0,0.0,0.0,0.0,0.0,0.0,0.0,0.0,0.0,0.0,0.0,0.0,0.0,0.0,0.0,0.0,0.0,0.0,0.0,0.0,0.0,0.0,0.0,0.0,0.0,0.0,0.0,0.0,0.0,0.042586350373101024,0.041696662731675736,0.04095636058628963,0.040428945107265815,0.040095313697903284,0.03985209929349635,0.03951089948946432,0.0389378405058564,0.038016266868822694,0.03672639092058299,0.035168056513580306,0.033520116177361316,0.03207168939616807,0.03104492712661458,0.030542137998131855,0.030484013733664255,0.030570760623655952,0.030407646090692856,0.02951519141450653,0.02751846616209115,0.02432117631557265,0.020236623881234886,0.016129644472121327,0.013309878225412103,0.013415525910168901,0.01815833889748104,0.02898028532080288,0.046751238103376,0.07141359314142542,0.10184822769799529,0.13590249537256335,0.170608538893482,0.2026351929775925,0.22872462058293178,0.24624909869955336,0.25364665184764573,0.25065971606472504,0.23839195649605763,0.21898773552086365,0.1952498977800984,0.17013099512688284,0.14623025745796522,0.12545007069975128,0.10871517701516537,0.09601757322795733,0.08661533840611997,0.07934512947914149,0.07300189796488654,0.0665664657786865,0.059436412771318066,0.051496723684537594,0.0430463144625576,0.03471350768269138,0.027162270408670416,0.02094571538104741,0.016378108962955225,0.013452559938406355,0.011967653334159575,0.011488355036669094,0.011505633832076622,0.011556427637689135,0.0,0.0,0.0,0.0,0.0,0.0,0.0,0.0,0.0,0.0,0.0,0.0,0.0,0.0,0.0,0.0,0.0,0.0,0.0,0.0,0.0,0.0,0.0,0.0,0.0,0.0,0.0,0.0,0.0,0.0,0.0,0.0,0.0,0.0,0.0,0.0,0.0,0.0,0.0,0.0,0.0,0.0,0.0,0.0,0.0,0.0,0.0,0.0,0.0,0.0,0.0,0.0,0.0,0.0,0.0,0.0,0.0,0.0,0.0,0.0,0.0,0.0,0.0,0.0,0.0,0.0,0.0,0.0,0.0,0.0,0.0,0.0,0.0,0.0,0.0,0.0,0.0,0.0,0.0,0.0,0.0,0.0,0.0,0.0,0.0,0.0,0.0,0.0,0.0,0.0,0.0,0.0,0.0,0.0,0.0,0.0,0.0,0.0,0.0,0.0,0.0,0.0,0.0,0.0,0.0,0.0,0.0,0.0,0.0,0.0,0.0,0.0,0.0,0.0,0.0,0.0,0.0,0.0,0.0,0.0,0.0,0.0,0.0,0.0,0.0,0.0,0.0,0.0,0.0,0.0,0.0,0.0,0.0,0.0,0.0,0.0,0.0,0.0,0.0,0.0,0.0,0.0,0.0,0.0,0.0,0.0,0.0,0.0,0.0,0.0,0.0,0.0,0.0,0.0,0.0,0.0,0.0,0.0,0.0,0.0,0.0,0.0,0.0,0.0,0.0,0.0,0.0,0.0,0.0,0.0,0.0,0.0,0.0,0.0,0.0,0.0,0.0,0.0,0.0,0.0,0.0,0.0,0.0,0.0,0.0,0.0,0.0,0.0,0.0,0.0,0.0,0.0,0.0,0.0,0.0,0.0,0.0,0.0,0.0,0.0,0.0,0.0,0.0,0.0,0.0,0.0,0.0,0.0,0.0,0.0,0.0,0.0,0.0,0.0,0.0,0.0,0.0,0.0,0.0,0.0,0.0,0.0,0.0,0.0,0.0,0.0,0.0,0.0,0.0,0.0,0.0,0.0,0.0,0.0,0.0,0.0,0.0,0.0,0.0
0.046783600973654124,0.0513496529982205,0.0552809522048912,0.05832505073875732,0.060366895265288545,0.06137153846278796,0.06157732680282222,0.06124486593700017,0.06065881527383112,0.060068944656949286,0.059579746604716884,0.05934021100150985,0.059346065260408074,0.05952483209932009,0.05977099404861003,0.0599171506835834,0.059967857066623546,0.059912280079772146,0.05977932871674355,0.05962004918213431,0.05942301765718707,0.05929593454982315,0.05926349873068273,0.059326326617429787,0.0594691043156586,0.05961128735039889,0.0598086493117746,0.06006840705140066,0.06039901147069856,0.060798186987577794,0.06119772601649156,0.061592469064016,0.06192314837305345,0.06212181828755068,0.062127269659496984,0.06187412007633466,0.06137977948160849,0.06069090443913293,0.05988420143459269,0.05904562039540698,0.058212184888095056,0.057469489432178264,0.05684843728314549,0.056352668595322265,0.05596397113131697,0.05560361080027966,0.0552902478622247,0.05500676562684201,0.05474243160557935,0.05448990725994404,0.054182421906636254,0.05388249818447541,0.05358983782352549,0.05330191320337349,0.05301584338857111,0.052658938093587064,0.05232174573598534,0.05201207361341818,0.05173106532043526,0.0514730529157325,0.05115747723388871,0.0,0.0,0.0,0.0,0.0,0.0,0.0,0.0,0.0,0.0,0.0,0.0,0.0,0.0,0.0,0.0,0.0,0.0,0.0,0.0,0.0,0.0,0.0,0.0,0.0,0.0,0.0,0.0,0.0,0.0,0.0,0.0,0.0,0.0,0.0,0.0,0.0,0.0,0.0,0.0,0.0,0.0,0.0,0.0,0.0,0.0,0.0,0.0,0.0,0.0,0.0,0.0,0.0,0.0,0.0,0.0,0.0,0.0,0.0,0.0,0.0,0.0,0.0,0.0,0.0,0.0,0.0,0.0,0.0,0.0,0.0,0.0,0.0,0.0,0.0,0.0,0.0,0.0,0.0,0.0,0.0,0.0,0.0,0.0,0.0,0.0,0.0,0.0,0.0,0.0,0.0,0.0,0.0,0.0,0.0,0.0,0.0,0.0,0.0,0.0,0.0,0.0,0.0,0.0,0.0,0.0,0.0,0.0,0.0,0.0,0.0,0.0,0.0,0.0,0.0,0.0,0.0,0.0,0.0,0.0,0.0,0.0,0.0,0.0,0.0,0.0,0.0,0.0,0.0,0.0,0.0,0.0,0.0,0.0,0.0,0.0,0.0,0.0,0.0,0.0,0.0,0.0,0.0,0.0,0.0,0.0,0.0,0.0,0.0,0.0,0.0,0.0,0.0,0.0,0.0,0.0,0.0,0.0,0.0,0.0,0.0,0.0,0.0,0.0,0.0,0.0,0.0,0.0,0.0,0.0,0.0,0.0,0.0,0.0,0.0,0.0,0.0,0.0,0.0,0.0,0.0,0.0,0.0,0.0,0.0,0.0,0.0,0.0,0.0,0.0,0.0,0.0,0.0,0.0,0.0,0.0,0.0,0.0,0.0,0.0,0.0,0.0,0.0,0.0,0.0,0.0,0.0,0.0,0.0,0.0,0.0,0.0,0.0,0.0,0.0,0.0,0.0,0.0,0.0,0.0,0.0,0.0,0.0,0.0,0.0,0.0,0.0,0.0,0.0,0.0,0.0,0.0,0.0,0.0,0.0,0.0,0.0,0.0,0.0,0.0430463144625576,0.03471350768269138,0.027162270408670416,0.02094571538104741,0.016378108962955225,0.013452559938406355,0.011967653334159575,0.011488355036669094,0.011505633832076622,0.011556427637689135,0.01127939197941695,0.010577516909791645,0.009480006112675892,0.008134349164679425,0.006734746312423048,0.005409690094279628,0.0043067301814674564,0.003438056449040572,0.0027373966973220547,0.002097257901083151,0.0013732946343099238,0.0005426213248293587,-0.00040611488244452555,-0.0014465149224914392,-0.002540230510256746,-0.0037007423473471406,-0.00489356319530279,-0.006140776176700563,-0.0074701335511448055,-0.008889327375094753,-0.010463806115650157,-0.011964673070991165,-0.013300026045615348,-0.01439937877752762,-0.01523842423993276,-0.01601646485095883,-0.016573995814462547,-0.01708580275069997,-0.01774210964238422,-0.018660236420009933,-0.01993641409852659,-0.021207642862909753,-0.022191038575433458,-0.02257312909691849,-0.022082048600087105,-0.020630507161771956,-0.018103649578944933,-0.014659362569809086,-0.010597521166356675,-0.006291866199510865,-0.00217037316961512,0.001557362175079383,0.004737207337658645,0.007350946452591783,0.00949831620106538,0.011307157571504137,0.013022034722556627,0.014821916214815638,0.01681315258333839,0.019006322894232028,0.021276837991904964,0.0,0.0,0.0,0.0,0.0,0.0,0.0,0.0,0.0,0.0,0.0,0.0,0.0,0.0,0.0,0.0,0.0,0.0,0.0,0.0,0.0,0.0,0.0,0.0,0.0,0.0,0.0,0.0,0.0,0.0,0.0,0.0,0.0,0.0,0.0,0.0,0.0,0.0,0.0,0.0,0.0,0.0,0.0,0.0,0.0,0.0,0.0,0.0,0.0,0.0,0.0,0.0,0.0,0.0,0.0,0.0,0.0,0.0,0.0,0.0,0.0,0.0,0.0,0.0,0.0,0.0,0.0,0.0,0.0,0.0,0.0,0.0,0.0,0.0,0.0,0.0,0.0,0.0,0.0,0.0,0.0,0.0,0.0,0.0,0.0,0.0,0.0,0.0,0.0,0.0,0.0,0.0,0.0,0.0,0.0,0.0,0.0,0.0,0.0,0.0,0.0,0.0,0.0,0.0,0.0,0.0,0.0,0.0,0.0,0.0,0.0,0.0,0.0,0.0,0.0,0.0,0.0,0.0,0.0,0.0,0.0,0.0,0.0,0.0,0.0,0.0,0.0,0.0,0.0,0.0,0.0,0.0,0.0,0.0,0.0,0.0,0.0,0.0,0.0,0.0,0.0,0.0,0.0,0.0,0.0,0.0,0.0,0.0,0.0,0.0,0.0,0.0,0.0,0.0,0.0,0.0,0.0,0.0,0.0,0.0,0.0,0.0,0.0,0.0,0.0,0.0,0.0,0.0,0.0,0.0,0.0,0.0,0.0,0.0,0.0,0.0,0.0,0.0,0.0,0.0,0.0,0.0,0.0,0.0,0.0,0.0,0.0,0.0,0.0,0.0,0.0,0.0,0.0,0.0,0.0,0.0,0.0,0.0,0.0,0.0,0.0,0.0,0.0,0.0,0.0,0.0,0.0,0.0,0.0,0.0,0.0,0.0,0.0,0.0,0.0,0.0,0.0,0.0,0.0,0.0,0.0,0.0,0.0,0.0,0.0,0.0,0.0,0.0,0.0,0.0,0.0,0.0,0.0,0.0,0.0,0.0,0.0,0.0,0.0
0.05388249818447541,0.05358983782352549,0.05330191320337349,0.05301584338857111,0.052658938093587064,0.05232174573598534,0.05201207361341818,0.05173106532043526,0.0514730529157325,0.05115747723388871,0.05085698853940226,0.05056078395916573,0.05025530662288165,0.049930262442893884,0.049516723072222234,0.049108736348926166,0.04872690088940764,0.04838832657986351,0.04810080852952735,0.047790429824728635,0.047513053150167024,0.04721986382258927,0.04683571018702056,0.046271354616160804,0.0453765166490232,0.044174757090618993,0.04265243363711367,0.04084633071787449,0.038849625134959355,0.036739904912870366,0.034778728039135946,0.03314956061886033,0.032002311686120964,0.031427895653757906,0.0313755969926611,0.031872505998145034,0.032797427512633745,0.033982975518966535,0.035249917408373306,0.036372375112173734,0.03733003633736591,0.03808275729678961,0.03864478311278241,0.039071939162988706,0.0393700136603769,0.039702045142616514,0.0401298991307294,0.04067608639274695,0.041321165365974355,0.04193648428048377,0.04253596353106075,0.043048908480143554,0.043409866498936314,0.04357039156896001,0.043429743314947825,0.04308465658849217,0.042579700039440116,0.041976041043062795,0.0413411394894306,0.04069159186632499,0.040136316508168395,0.0,0.0,0.0,0.0,0.0,0.0,0.0,0.0,0.0,0.0,0.0,0.0,0.0,0.0,0.0,0.0,0.0,0.0,0.0,0.0,0.0,0.0,0.0,0.0,0.0,0.0,0.0,0.0,0.0,0.0,0.0,0.0,0.0,0.0,0.0,0.0,0.0,0.0,0.0,0.0,0.0,0.0,0.0,0.0,0.0,0.0,0.0,0.0,0.0,0.0,0.0,0.0,0.0,0.0,0.0,0.0,0.0,0.0,0.0,0.0,0.0,0.0,0.0,0.0,0.0,0.0,0.0,0.0,0.0,0.0,0.0,0.0,0.0,0.0,0.0,0.0,0.0,0.0,0.0,0.0,0.0,0.0,0.0,0.0,0.0,0.0,0.0,0.0,0.0,0.0,0.0,0.0,0.0,0.0,0.0,0.0,0.0,0.0,0.0,0.0,0.0,0.0,0.0,0.0,0.0,0.0,0.0,0.0,0.0,0.0,0.0,0.0,0.0,0.0,0.0,0.0,0.0,0.0,0.0,0.0,0.0,0.0,0.0,0.0,0.0,0.0,0.0,0.0,0.0,0.0,0.0,0.0,0.0,0.0,0.0,0.0,0.0,0.0,0.0,0.0,0.0,0.0,0.0,0.0,0.0,0.0,0.0,0.0,0.0,0.0,0.0,0.0,0.0,0.0,0.0,0.0,0.0,0.0,0.0,0.0,0.0,0.0,0.0,0.0,0.0,0.0,0.0,0.0,0.0,0.0,0.0,0.0,0.0,0.0,0.0,0.0,0.0,0.0,0.0,0.0,0.0,0.0,0.0,0.0,0.0,0.0,0.0,0.0,0.0,0.0,0.0,0.0,0.0,0.0,0.0,0.0,0.0,0.0,0.0,0.0,0.0,0.0,0.0,0.0,0.0,0.0,0.0,0.0,0.0,0.0,0.0,0.0,0.0,0.0,0.0,0.0,0.0,0.0,0.0,0.0,0.0,0.0,0.0,0.0,0.0,0.0,0.0,0.0,0.0,0.0,0.0,0.0,0.0,0.0,0.0,0.0,0.0,0.0,0.0,0.001557362175079383,0.004737207337658645,0.007350946452591783,0.00949831620106538,0.011307157571504137,0.013022034722556627,0.014821916214815638,0.01681315258333839,0.019006322894232028,0.021276837991904964,0.023515048891812343,0.025557019931459594,0.02725573572747238,0.028514329587398676,0.02926983446995111,0.02960216221435171,0.029629633240585068,0.029502175106525724,0.029363887715942415,0.029286149400986804,0.029348360106500385,0.02955530728491156,0.029866370272232885,0.03021344584448615,0.0304909989137723,0.03067113777855239,0.030747018591711757,0.03074704250840091,0.030720106255697845,0.030684546129381558,0.03069907529087375,0.030793957154388537,0.03097594174183393,0.031226766666909545,0.03147829800225533,0.0317054847773022,0.03189083613034025,0.03203442547273557,0.03214932701221587,0.03222673203787569,0.03230678105643623,0.03243846126872413,0.03267668714714936,0.033071887357522194,0.033633338799475006,0.034389563587238374,0.03535305500598542,0.03651022949777129,0.03781045910947775,0.03913534147595631,0.04038327607105066,0.041434596099455316,0.04218219793586408,0.042549030861433315,0.04247345270027962,0.04200095268623049,0.04120529547104331,0.04019693929180417,0.03910317967432141,0.03790260729466983,0.03684225539309725,0.0,0.0,0.0,0.0,0.0,0.0,0.0,0.0,0.0,0.0,0.0,0.0,0.0,0.0,0.0,0.0,0.0,0.0,0.0,0.0,0.0,0.0,0.0,0.0,0.0,0.0,0.0,0.0,0.0,0.0,0.0,0.0,0.0,0.0,0.0,0.0,0.0,0.0,0.0,0.0,0.0,0.0,0.0,0.0,0.0,0.0,0.0,0.0,0.0,0.0,0.0,0.0,0.0,0.0,0.0,0.0,0.0,0.0,0.0,0.0,0.0,0.0,0.0,0.0,0.0,0.0,0.0,0.0,0.0,0.0,0.0,0.0,0.0,0.0,0.0,0.0,0.0,0.0,0.0,0.0,0.0,0.0,0.0,0.0,0.0,0.0,0.0,0.0,0.0,0.0,0.0,0.0,0.0,0.0,0.0,0.0,0.0,0.0,0.0,0.0,0.0,0.0,0.0,0.0,0.0,0.0,0.0,0.0,0.0,0.0,0.0,0.0,0.0,0.0,0.0,0.0,0.0,0.0,0.0,0.0,0.0,0.0,0.0,0.0,0.0,0.0,0.0,0.0,0.0,0.0,0.0,0.0,0.0,0.0,0.0,0.0,0.0,0.0,0.0,0.0,0.0,0.0,0.0,0.0,0.0,0.0,0.0,0.0,0.0,0.0,0.0,0.0,0.0,0.0,0.0,0.0,0.0,0.0,0.0,0.0,0.0,0.0,0.0,0.0,0.0,0.0,0.0,0.0,0.0,0.0,0.0,0.0,0.0,0.0,0.0,0.0,0.0,0.0,0.0,0.0,0.0,0.0,0.0,0.0,0.0,0.0,0.0,0.0,0.0,0.0,0.0,0.0,0.0,0.0,0.0,0.0,0.0,0.0,0.0,0.0,0.0,0.0,0.0,0.0,0.0,0.0,0.0,0.0,0.0,0.0,0.0,0.0,0.0,0.0,0.0,0.0,0.0,0.0,0.0,0.0,0.0,0.0,0.0,0.0,0.0,0.0,0.0,0.0,0.0,0.0,0.0,0.0,0.0,0.0,0.0,0.0,0.0,0.0,0.0
0.043048908480143554,0.043409866498936314,0.04357039156896001,0.043429743314947825,0.04308465658849217,0.042579700039440116,0.041976041043062795,0.0413411394894306,0.04069159186632499,0.040136316508168395,0.039695923891908666,0.03936286853821301,0.03911188740990119,0.03889882262059737,0.03873183003068204,0.038576901373996914,0.038405516313781606,0.038203474309040995,0.0379429562234566,0.037697451225934896,0.03749402081295349,0.03735539737705303,0.03729506120818081,0.037261855955662795,0.03730946274897775,0.037416157094605086,0.037548719310056475,0.03767267578862072,0.03769928453907666,0.0377020033874254,0.03772010816115552,0.03781381679858655,0.03805029036906063,0.038406945233025465,0.0389947691024885,0.03982462600529919,0.040860955287917375,0.042021827857414706,0.04311063027669317,0.044095107839369097,0.04490474244947538,0.04552205273213072,0.04599336534576879,0.04633844406118512,0.046794176048027394,0.04752949728593326,0.04866474075933911,0.05021634406498961,0.05197069215418344,0.05372671032736014,0.05506706147772284,0.05547990987853197,0.05443932278421043,0.05142558300394632,0.04628380754171258,0.03906461548337713,0.030135939580782,0.02016501046158361,0.009964232037294535,0.0006062168908431878,-0.006961127167188806,0.0,0.0,0.0,0.0,0.0,0.0,0.0,0.0,0.0,0.0,0.0,0.0,0.0,0.0,0.0,0.0,0.0,0.0,0.0,0.0,0.0,0.0,0.0,0.0,0.0,0.0,0.0,0.0,0.0,0.0,0.0,0.0,0.0,0.0,0.0,0.0,0.0,0.0,0.0,0.0,0.0,0.0,0.0,0.0,0.0,0.0,0.0,0.0,0.0,0.0,0.0,0.0,0.0,0.0,0.0,0.0,0.0,0.0,0.0,0.0,0.0,0.0,0.0,0.0,0.0,0.0,0.0,0.0,0.0,0.0,0.0,0.0,0.0,0.0,0.0,0.0,0.0,0.0,0.0,0.0,0.0,0.0,0.0,0.0,0.0,0.0,0.0,0.0,0.0,0.0,0.0,0.0,0.0,0.0,0.0,0.0,0.0,0.0,0.0,0.0,0.0,0.0,0.0,0.0,0.0,0.0,0.0,0.0,0.0,0.0,0.0,0.0,0.0,0.0,0.0,0.0,0.0,0.0,0.0,0.0,0.0,0.0,0.0,0.0,0.0,0.0,0.0,0.0,0.0,0.0,0.0,0.0,0.0,0.0,0.0,0.0,0.0,0.0,0.0,0.0,0.0,0.0,0.0,0.0,0.0,0.0,0.0,0.0,0.0,0.0,0.0,0.0,0.0,0.0,0.0,0.0,0.0,0.0,0.0,0.0,0.0,0.0,0.0,0.0,0.0,0.0,0.0,0.0,0.0,0.0,0.0,0.0,0.0,0.0,0.0,0.0,0.0,0.0,0.0,0.0,0.0,0.0,0.0,0.0,0.0,0.0,0.0,0.0,0.0,0.0,0.0,0.0,0.0,0.0,0.0,0.0,0.0,0.0,0.0,0.0,0.0,0.0,0.0,0.0,0.0,0.0,0.0,0.0,0.0,0.0,0.0,0.0,0.0,0.0,0.0,0.0,0.0,0.0,0.0,0.0,0.0,0.0,0.0,0.0,0.0,0.0,0.0,0.0,0.0,0.0,0.0,0.0,0.0,0.0,0.0,0.0,0.0,0.0,0.0,0.041434596099455316,0.04218219793586408,0.042549030861433315,0.04247345270027962,0.04200095268623049,0.04120529547104331,0.04019693929180417,0.03910317967432141,0.03790260729466983,0.03684225539309725,0.036063970857354945,0.03566399753206856,0.03565732848720952,0.03569827173593497,0.03587864168112946,0.036130428318863185,0.03640938169555648,0.03669481701456011,0.036793254921101456,0.0368815002773536,0.03703195039936536,0.03730711756004615,0.0377323055419107,0.038174471473095106,0.038679382444430754,0.0392071865135893,0.0397308053510974,0.04024472065401404,0.04068682531970781,0.04115314998506039,0.04166704062060427,0.04221900379702774,0.042757135766117386,0.043155897200534796,0.04337258805232965,0.04335019878769387,0.04309246188716435,0.04267941324734068,0.042212207969027776,0.041907295104223224,0.041890726637510964,0.04217320371689212,0.04260169072856398,0.04280889965734801,0.04240975699964697,0.04096346989444746,0.03817147945037295,0.034042653773920795,0.028984808545657315,0.02402276911180305,0.0206039593938159,0.020489392054817746,0.025483616819277636,0.037042458505337786,0.056071211249787735,0.08246269708020443,0.11499268671826862,0.1513542199167418,0.18836951699305363,0.22252331570646275,0.2503757567411473,0.0,0.0,0.0,0.0,0.0,0.0,0.0,0.0,0.0,0.0,0.0,0.0,0.0,0.0,0.0,0.0,0.0,0.0,0.0,0.0,0.0,0.0,0.0,0.0,0.0,0.0,0.0,0.0,0.0,0.0,0.0,0.0,0.0,0.0,0.0,0.0,0.0,0.0,0.0,0.0,0.0,0.0,0.0,0.0,0.0,0.0,0.0,0.0,0.0,0.0,0.0,0.0,0.0,0.0,0.0,0.0,0.0,0.0,0.0,0.0,0.0,0.0,0.0,0.0,0.0,0.0,0.0,0.0,0.0,0.0,0.0,0.0,0.0,0.0,0.0,0.0,0.0,0.0,0.0,0.0,0.0,0.0,0.0,0.0,0.0,0.0,0.0,0.0,0.0,0.0,0.0,0.0,0.0,0.0,0.0,0.0,0.0,0.0,0.0,0.0,0.0,0.0,0.0,0.0,0.0,0.0,0.0,0.0,0.0,0.0,0.0,0.0,0.0,0.0,0.0,0.0,0.0,0.0,0.0,0.0,0.0,0.0,0.0,0.0,0.0,0.0,0.0,0.0,0.0,0.0,0.0,0.0,0.0,0.0,0.0,0.0,0.0,0.0,0.0,0.0,0.0,0.0,0.0,0.0,0.0,0.0,0.0,0.0,0.0,0.0,0.0,0.0,0.0,0.0,0.0,0.0,0.0,0.0,0.0,0.0,0.0,0.0,0.0,0.0,0.0,0.0,0.0,0.0,0.0,0.0,0.0,0.0,0.0,0.0,0.0,0.0,0.0,0.0,0.0,0.0,0.0,0.0,0.0,0.0,0.0,0.0,0.0,0.0,0.0,0.0,0.0,0.0,0.0,0.0,0.0,0.0,0.0,0.0,0.0,0.0,0.0,0.0,0.0,0.0,0.0,0.0,0.0,0.0,0.0,0.0,0.0,0.0,0.0,0.0,0.0,0.0,0.0,0.0,0.0,0.0,0.0,0.0,0.0,0.0,0.0,0.0,0.0,0.0,0.0,0.0,0.0,0.0,0.0,0.0,0.0,0.0,0.0,0.0,0.0
0.05547990987853197,0.05443932278421043,0.05142558300394632,0.04628380754171258,0.03906461548337713,0.030135939580782,0.02016501046158361,0.009964232037294535,0.0006062168908431878,-0.006961127167188806,-0.01200084283188151,-0.014109301861043212,-0.013351137055091913,-0.010018903186069801,-0.0047678317883284764,0.0015832111962237089,0.008208404939283947,0.014347584562114605,0.019645749069703195,0.02397834652856839,0.027492698289235843,0.030526111739611103,0.033414477507181704,0.036609419412521244,0.04035835228241744,0.044712838345937804,0.049522051441729775,0.05440685607071171,0.05905498098809702,0.06310670474452779,0.06629886044240235,0.06851799114384846,0.06975284548063278,0.07026465194027233,0.07033836994251227,0.07026754266129875,0.07028445731347267,0.07043874825200049,0.0708123511828981,0.0713132190823893,0.0717832219520792,0.0720509234830969,0.07189789142687039,0.07136067326526022,0.07048757452649992,0.06939776244960447,0.06824411814218188,0.0670836486001945,0.06611032343595077,0.06537076960865178,0.0648401258135371,0.06443731280126686,0.0639672285638351,0.06342834035175872,0.062769147942938,0.06198347839563188,0.061108913316831256,0.06014916420780717,0.059250570925211334,0.05851014534411875,0.058005213366641,0.0,0.0,0.0,0.0,0.0,0.0,0.0,0.0,0.0,0.0,0.0,0.0,0.0,0.0,0.0,0.0,0.0,0.0,0.0,0.0,0.0,0.0,0.0,0.0,0.0,0.0,0.0,0.0,0.0,0.0,0.0,0.0,0.0,0.0,0.0,0.0,0.0,0.0,0.0,0.0,0.0,0.0,0.0,0.0,0.0,0.0,0.0,0.0,0.0,0.0,0.0,0.0,0.0,0.0,0.0,0.0,0.0,0.0,0.0,0.0,0.0,0.0,0.0,0.0,0.0,0.0,0.0,0.0,0.0,0.0,0.0,0.0,0.0,0.0,0.0,0.0,0.0,0.0,0.0,0.0,0.0,0.0,0.0,0.0,0.0,0.0,0.0,0.0,0.0,0.0,0.0,0.0,0.0,0.0,0.0,0.0,0.0,0.0,0.0,0.0,0.0,0.0,0.0,0.0,0.0,0.0,0.0,0.0,0.0,0.0,0.0,0.0,0.0,0.0,0.0,0.0,0.0,0.0,0.0,0.0,0.0,0.0,0.0,0.0,0.0,0.0,0.0,0.0,0.0,0.0,0.0,0.0,0.0,0.0,0.0,0.0,0.0,0.0,0.0,0.0,0.0,0.0,0.0,0.0,0.0,0.0,0.0,0.0,0.0,0.0,0.0,0.0,0.0,0.0,0.0,0.0,0.0,0.0,0.0,0.0,0.0,0.0,0.0,0.0,0.0,0.0,0.0,0.0,0.0,0.0,0.0,0.0,0.0,0.0,0.0,0.0,0.0,0.0,0.0,0.0,0.0,0.0,0.0,0.0,0.0,0.0,0.0,0.0,0.0,0.0,0.0,0.0,0.0,0.0,0.0,0.0,0.0,0.0,0.0,0.0,0.0,0.0,0.0,0.0,0.0,0.0,0.0,0.0,0.0,0.0,0.0,0.0,0.0,0.0,0.0,0.0,0.0,0.0,0.0,0.0,0.0,0.0,0.0,0.0,0.0,0.0,0.0,0.0,0.0,0.0,0.0,0.0,0.0,0.0,0.0,0.0,0.0,0.0,0.0,0.020489392054817746,0.025483616819277636,0.037042458505337786,0.056071211249787735,0.08246269708020443,0.11499268671826862,0.1513542199167418,0.18836951699305363,0.22252331570646275,0.2503757567411473,0.2691573412168557,0.27722482301420603,0.27430659931182677,0.26157024325454337,0.24129197096117344,0.21644538607404243,0.19015916958455062,0.16516814985783648,0.14347781102382134,0.12605349301654897,0.11286469201213967,0.10309351615489523,0.09544757911761675,0.08862466565469339,0.08153362557761962,0.0735513325349215,0.06460029968817621,0.05505201898549597,0.04568053183723242,0.0373083816339799,0.030640484631606582,0.02610708322145718,0.02374187942917787,0.023344773165862188,0.024401998325797737,0.02626806615868757,0.02830721983133955,0.02996174180468127,0.03099556207142613,0.031336205072556994,0.031096911343311294,0.03050735644122192,0.02977279354425459,0.029185053568788356,0.028882453840363285,0.028889578460986394,0.02912791048148746,0.029386833327174535,0.029547038147002564,0.029431087500082588,0.028877016043024756,0.027748464521753,0.025882152064590616,0.023288230095544378,0.019996588429293336,0.016123308491801398,0.011878352055052067,0.0074496576661917295,0.0033528470809021157,-7.509410943760146e-05,-0.0025718730768478372,0.0,0.0,0.0,0.0,0.0,0.0,0.0,0.0,0.0,0.0,0.0,0.0,0.0,0.0,0.0,0.0,0.0,0.0,0.0,0.0,0.0,0.0,0.0,0.0,0.0,0.0,0.0,0.0,0.0,0.0,0.0,0.0,0.0,0.0,0.0,0.0,0.0,0.0,0.0,0.0,0.0,0.0,0.0,0.0,0.0,0.0,0.0,0.0,0.0,0.0,0.0,0.0,0.0,0.0,0.0,0.0,0.0,0.0,0.0,0.0,0.0,0.0,0.0,0.0,0.0,0.0,0.0,0.0,0.0,0.0,0.0,0.0,0.0,0.0,0.0,0.0,0.0,0.0,0.0,0.0,0.0,0.0,0.0,0.0,0.0,0.0,0.0,0.0,0.0,0.0,0.0,0.0,0.0,0.0,0.0,0.0,0.0,0.0,0.0,0.0,0.0,0.0,0.0,0.0,0.0,0.0,0.0,0.0,0.0,0.0,0.0,0.0,0.0,0.0,0.0,0.0,0.0,0.0,0.0,0.0,0.0,0.0,0.0,0.0,0.0,0.0,0.0,0.0,0.0,0.0,0.0,0.0,0.0,0.0,0.0,0.0,0.0,0.0,0.0,0.0,0.0,0.0,0.0,0.0,0.0,0.0,0.0,0.0,0.0,0.0,0.0,0.0,0.0,0.0,0.0,0.0,0.0,0.0,0.0,0.0,0.0,0.0,0.0,0.0,0.0,0.0,0.0,0.0,0.0,0.0,0.0,0.0,0.0,0.0,0.0,0.0,0.0,0.0,0.0,0.0,0.0,0.0,0.0,0.0,0.0,0.0,0.0,0.0,0.0,0.0,0.0,0.0,0.0,0.0,0.0,0.0,0.0,0.0,0.0,0.0,0.0,0.0,0.0,0.0,0.0,0.0,0.0,0.0,0.0,0.0,0.0,0.0,0.0,0.0,0.0,0.0,0.0,0.0,0.0,0.0,0.0,0.0,0.0,0.0,0.0,0.0,0.0,0.0,0.0,0.0,0.0,0.0,0.0,0.0,0.0,0.0,0.0,0.0,0.0
0.06443731280126686,0.0639672285638351,0.06342834035175872,0.062769147942938,0.06198347839563188,0.061108913316831256,0.06014916420780717,0.059250570925211334,0.05851014534411875,0.058005213366641,0.057780513832395665,0.05780170276324862,0.058075057843825315,0.058578936684338695,0.05927666139373306,0.06010922872387893,0.06093157073625649,0.06168482959393586,0.06226118133299388,0.06254822349122818,0.062437943615362194,0.06176664123443728,0.06056046021181368,0.058843848861032666,0.056708278659825175,0.054310421470785956,0.051776599444546635,0.04944801541032627,0.04759302297404546,0.04644848635063717,0.046182899326209725,0.04677285289686522,0.048291742304521254,0.050603340311980605,0.053476415256073606,0.05661898098662689,0.05962315595708042,0.062326435619027676,0.06452852088342928,0.0661131422295839,0.06705506264704406,0.06730905414118377,0.06711874882322191,0.06665540956635616,0.0660874941249451,0.06555128151487531,0.065035296761404,0.06467456645523072,0.06444473626321348,0.06427046197250988,0.06404750038270655,0.06358314212016085,0.06290049795392369,0.061974062956662905,0.06082828474574964,0.05953735154241724,0.05812718721572643,0.05683842218984991,0.05582014845719327,0.05519257298714881,0.05502720270212792,0.0,0.0,0.0,0.0,0.0,0.0,0.0,0.0,0.0,0.0,0.0,0.0,0.0,0.0,0.0,0.0,0.0,0.0,0.0,0.0,0.0,0.0,0.0,0.0,0.0,0.0,0.0,0.0,0.0,0.0,0.0,0.0,0.0,0.0,0.0,0.0,0.0,0.0,0.0,0.0,0.0,0.0,0.0,0.0,0.0,0.0,0.0,0.0,0.0,0.0,0.0,0.0,0.0,0.0,0.0,0.0,0.0,0.0,0.0,0.0,0.0,0.0,0.0,0.0,0.0,0.0,0.0,0.0,0.0,0.0,0.0,0.0,0.0,0.0,0.0,0.0,0.0,0.0,0.0,0.0,0.0,0.0,0.0,0.0,0.0,0.0,0.0,0.0,0.0,0.0,0.0,0.0,0.0,0.0,0.0,0.0,0.0,0.0,0.0,0.0,0.0,0.0,0.0,0.0,0.0,0.0,0.0,0.0,0.0,0.0,0.0,0.0,0.0,0.0,0.0,0.0,0.0,0.0,0.0,0.0,0.0,0.0,0.0,0.0,0.0,0.0,0.0,0.0,0.0,0.0,0.0,0.0,0.0,0.0,0.0,0.0,0.0,0.0,0.0,0.0,0.0,0.0,0.0,0.0,0.0,0.0,0.0,0.0,0.0,0.0,0.0,0.0,0.0,0.0,0.0,0.0,0.0,0.0,0.0,0.0,0.0,0.0,0.0,0.0,0.0,0.0,0.0,0.0,0.0,0.0,0.0,0.0,0.0,0.0,0.0,0.0,0.0,0.0,0.0,0.0,0.0,0.0,0.0,0.0,0.0,0.0,0.0,0.0,0.0,0.0,0.0,0.0,0.0,0.0,0.0,0.0,0.0,0.0,0.0,0.0,0.0,0.0,0.0,0.0,0.0,0.0,0.0,0.0,0.0,0.0,0.0,0.0,0.0,0.0,0.0,0.0,0.0,0.0,0.0,0.0,0.0,0.0,0.0,0.0,0.0,0.0,0.0,0.0,0.0,0.0,0.0,0.0,0.0,0.0,0.0,0.0,0.0,0.0,0.0,0.027748464521753,0.025882152064590616,0.023288230095544378,0.019996588429293336,0.016123308491801398,0.011878352055052067,0.0074496576661917295,0.0033528470809021157,-7.509410943760146e-05,-0.0025718730768478372,-0.003991760411648866,-0.004485906000144821,-0.00393084695920447,-0.002636061169293019,-0.0009975913611029856,0.0006161359702262188,0.0018481510541730676,0.0028165316797859304,0.0035872612308628254,0.004321716588067383,0.005224032352101305,0.006408097445631125,0.008096867214819137,0.010284575195484138,0.012847916800959846,0.01558618211381545,0.018229268133023422,0.020662359796325323,0.022767056943495564,0.02451115971557108,0.025948331875529595,0.02716932536576887,0.028347368370295903,0.029601214076909896,0.030991935888354565,0.032508907138829035,0.034057014464349576,0.03556203194528232,0.03692304572311464,0.03808515246353259,0.03906948240212847,0.03995996510728094,0.04094636211735856,0.04219127177424641,0.04380177993634024,0.04577814198459828,0.04796847948592655,0.05012536232137199,0.05186809764017584,0.05277837468350973,0.052486801567068087,0.050744271079598856,0.047524399234400085,0.042981060431453416,0.03745522344777577,0.03142413926777418,0.025411273368974235,0.01995322273691044,0.015473307704585324,0.012243804112107503,0.010361476968480271,0.0,0.0,0.0,0.0,0.0,0.0,0.0,0.0,0.0,0.0,0.0,0.0,0.0,0.0,0.0,0.0,0.0,0.0,0.0,0.0,0.0,0.0,0.0,0.0,0.0,0.0,0.0,0.0,0.0,0.0,0.0,0.0,0.0,0.0,0.0,0.0,0.0,0.0,0.0,0.0,0.0,0.0,0.0,0.0,0.0,0.0,0.0,0.0,0.0,0.0,0.0,0.0,0.0,0.0,0.0,0.0,0.0,0.0,0.0,0.0,0.0,0.0,0.0,0.0,0.0,0.0,0.0,0.0,0.0,0.0,0.0,0.0,0.0,0.0,0.0,0.0,0.0,0.0,0.0,0.0,0.0,0.0,0.0,0.0,0.0,0.0,0.0,0.0,0.0,0.0,0.0,0.0,0.0,0.0,0.0,0.0,0.0,0.0,0.0,0.0,0.0,0.0,0.0,0.0,0.0,0.0,0.0,0.0,0.0,0.0,0.0,0.0,0.0,0.0,0.0,0.0,0.0,0.0,0.0,0.0,0.0,0.0,0.0,0.0,0.0,0.0,0.0,0.0,0.0,0.0,0.0,0.0,0.0,0.0,0.0,0.0,0.0,0.0,0.0,0.0,0.0,0.0,0.0,0.0,0.0,0.0,0.0,0.0,0.0,0.0,0.0,0.0,0.0,0.0,0.0,0.0,0.0,0.0,0.0,0.0,0.0,0.0,0.0,0.0,0.0,0.0,0.0,0.0,0.0,0.0,0.0,0.0,0.0,0.0,0.0,0.0,0.0,0.0,0.0,0.0,0.0,0.0,0.0,0.0,0.0,0.0,0.0,0.0,0.0,0.0,0.0,0.0,0.0,0.0,0.0,0.0,0.0,0.0,0.0,0.0,0.0,0.0,0.0,0.0,0.0,0.0,0.0,0.0,0.0,0.0,0.0,0.0,0.0,0.0,0.0,0.0,0.0,0.0,0.0,0.0,0.0,0.0,0.0,0.0,0.0,0.0,0.0,0.0,0.0,0.0,0.0,0.0,0.0,0.0,0.0,0.0,0.0,0.0,0.0
0.06358314212016085,0.06290049795392369,0.061974062956662905,0.06082828474574964,0.05953735154241724,0.05812718721572643,0.05683842218984991,0.05582014845719327,0.05519257298714881,0.05502720270212792,0.0552465552367641,0.055907833178753766,0.05693026180055798,0.058195747920549386,0.05956775413487688,0.06082425499068972,0.06195516298624289,0.06289458779356939,0.06361168536687485,0.06410830556762584,0.06432606271604817,0.06440993388033268,0.06441749705220327,0.06439571746806987,0.06437615693622806,0.06429622979983445,0.06425947056758993,0.06428793107714315,0.06440624820498536,0.06464400830483029,0.06495924551144032,0.06546574400625298,0.0661900301855774,0.06712701854851236,0.06822853216709925,0.0693256778167189,0.07037586164906942,0.07123385703684815,0.07175310206235679,0.07181305602936822,0.07126882027815737,0.07021097216737177,0.06870729637379668,0.06687891522936806,0.06488522041491432,0.06283180671579598,0.060984132102292844,0.059494141551829555,0.058467412205793746,0.05795738480046042,0.05789680700828598,0.058329066305297515,0.05917020287821424,0.06029786656815612,0.061565835440902335,0.0627526745702206,0.06380186101497173,0.06460101936244407,0.06507071497125519,0.06517428608134423,0.06485379594678294,0.0,0.0,0.0,0.0,0.0,0.0,0.0,0.0,0.0,0.0,0.0,0.0,0.0,0.0,0.0,0.0,0.0,0.0,0.0,0.0,0.0,0.0,0.0,0.0,0.0,0.0,0.0,0.0,0.0,0.0,0.0,0.0,0.0,0.0,0.0,0.0,0.0,0.0,0.0,0.0,0.0,0.0,0.0,0.0,0.0,0.0,0.0,0.0,0.0,0.0,0.0,0.0,0.0,0.0,0.0,0.0,0.0,0.0,0.0,0.0,0.0,0.0,0.0,0.0,0.0,0.0,0.0,0.0,0.0,0.0,0.0,0.0,0.0,0.0,0.0,0.0,0.0,0.0,0.0,0.0,0.0,0.0,0.0,0.0,0.0,0.0,0.0,0.0,0.0,0.0,0.0,0.0,0.0,0.0,0.0,0.0,0.0,0.0,0.0,0.0,0.0,0.0,0.0,0.0,0.0,0.0,0.0,0.0,0.0,0.0,0.0,0.0,0.0,0.0,0.0,0.0,0.0,0.0,0.0,0.0,0.0,0.0,0.0,0.0,0.0,0.0,0.0,0.0,0.0,0.0,0.0,0.0,0.0,0.0,0.0,0.0,0.0,0.0,0.0,0.0,0.0,0.0,0.0,0.0,0.0,0.0,0.0,0.0,0.0,0.0,0.0,0.0,0.0,0.0,0.0,0.0,0.0,0.0,0.0,0.0,0.0,0.0,0.0,0.0,0.0,0.0,0.0,0.0,0.0,0.0,0.0,0.0,0.0,0.0,0.0,0.0,0.0,0.0,0.0,0.0,0.0,0.0,0.0,0.0,0.0,0.0,0.0,0.0,0.0,0.0,0.0,0.0,0.0,0.0,0.0,0.0,0.0,0.0,0.0,0.0,0.0,0.0,0.0,0.0,0.0,0.0,0.0,0.0,0.0,0.0,0.0,0.0,0.0,0.0,0.0,0.0,0.0,0.0,0.0,0.0,0.0,0.0,0.0,0.0,0.0,0.0,0.0,0.0,0.0,0.0,0.0,0.0,0.0,0.0,0.0,0.0,0.0,0.0,0.0,0.050744271079598856,0.047524399234400085,0.042981060431453416,0.03745522344777577,0.03142413926777418,0.025411273368974235,0.01995322273691044,0.015473307704585324,0.012243804112107503,0.010361476968480271,0.009733945693355728,0.010167374133243602,0.011375604412188415,0.01303881134643508,0.014847982395650218,0.01650259475844236,0.017841364521956195,0.01876606007659395,0.01925337127837773,0.019334487822820164,0.019017894927383372,0.01843145460727317,0.01767895354174008,0.016859343439976828,0.016052970753287793,0.015250777806467324,0.014531262597109209,0.013900382288757278,0.01333247590971494,0.012771453683755422,0.012074037390655669,0.011233359449198356,0.010216070483323217,0.009031991787015867,0.007738446064812137,0.006358649666828802,0.005080782435022007,0.004017989376821119,0.0032318350839330733,0.00270543844586885,0.0022622114815158537,0.0018296376277193685,0.0012574541287520755,0.0004382563687528664,-0.0006465300290734196,-0.001985293918778017,-0.0032795769111715134,-0.004234906664672998,-0.004551495268828386,-0.00399849850401569,-0.0025647679099109672,-0.00020366176820053219,0.0029002311957145844,0.006457846697634374,0.010143184031014755,0.013587763181745888,0.016688665680124032,0.019418861220214433,0.02188483440192314,0.024284866566045196,0.026776523638423044,0.0,0.0,0.0,0.0,0.0,0.0,0.0,0.0,0.0,0.0,0.0,0.0,0.0,0.0,0.0,0.0,0.0,0.0,0.0,0.0,0.0,0.0,0.0,0.0,0.0,0.0,0.0,0.0,0.0,0.0,0.0,0.0,0.0,0.0,0.0,0.0,0.0,0.0,0.0,0.0,0.0,0.0,0.0,0.0,0.0,0.0,0.0,0.0,0.0,0.0,0.0,0.0,0.0,0.0,0.0,0.0,0.0,0.0,0.0,0.0,0.0,0.0,0.0,0.0,0.0,0.0,0.0,0.0,0.0,0.0,0.0,0.0,0.0,0.0,0.0,0.0,0.0,0.0,0.0,0.0,0.0,0.0,0.0,0.0,0.0,0.0,0.0,0.0,0.0,0.0,0.0,0.0,0.0,0.0,0.0,0.0,0.0,0.0,0.0,0.0,0.0,0.0,0.0,0.0,0.0,0.0,0.0,0.0,0.0,0.0,0.0,0.0,0.0,0.0,0.0,0.0,0.0,0.0,0.0,0.0,0.0,0.0,0.0,0.0,0.0,0.0,0.0,0.0,0.0,0.0,0.0,0.0,0.0,0.0,0.0,0.0,0.0,0.0,0.0,0.0,0.0,0.0,0.0,0.0,0.0,0.0,0.0,0.0,0.0,0.0,0.0,0.0,0.0,0.0,0.0,0.0,0.0,0.0,0.0,0.0,0.0,0.0,0.0,0.0,0.0,0.0,0.0,0.0,0.0,0.0,0.0,0.0,0.0,0.0,0.0,0.0,0.0,0.0,0.0,0.0,0.0,0.0,0.0,0.0,0.0,0.0,0.0,0.0,0.0,0.0,0.0,0.0,0.0,0.0,0.0,0.0,0.0,0.0,0.0,0.0,0.0,0.0,0.0,0.0,0.0,0.0,0.0,0.0,0.0,0.0,0.0,0.0,0.0,0.0,0.0,0.0,0.0,0.0,0.0,0.0,0.0,0.0,0.0,0.0,0.0,0.0,0.0,0.0,0.0,0.0,0.0,0.0,0.0,0.0,0.0,0.0,0.0,0.0,0.0
0.058329066305297515,0.05917020287821424,0.06029786656815612,0.061565835440902335,0.0627526745702206,0.06380186101497173,0.06460101936244407,0.06507071497125519,0.06517428608134423,0.06485379594678294,0.06424403232015805,0.06343199527606616,0.06251269027146736,0.06157351599834415,0.060613980309364546,0.05976346750458772,0.05904414182393122,0.058452980773892715,0.05797274591534407,0.05751342048957346,0.05714844546362292,0.05687018661039597,0.056666995571553254,0.05652006282868839,0.056326737635108676,0.05613864780435816,0.05590734803769156,0.05557134237920164,0.055067379742032706,0.05426734148775768,0.05324275269510462,0.05200966642756857,0.05061511648352911,0.04913378336072261,0.04758666365242935,0.04616024215680259,0.044933481964580226,0.04394724508603267,0.04320018697941251,0.04258840190797642,0.04213587923159072,0.04176470805918779,0.04139813212883245,0.04098278685473201,0.04043967292884138,0.03988191228888359,0.03937090710592135,0.03897759148230596,0.0387653867300515,0.03871107795063226,0.03890372626578778,0.03931745984794274,0.039889906058073236,0.040537008748749874,0.041102332472539096,0.0415993230330535,0.0419806399127246,0.042219429750694246,0.04230863076744826,0.042182326654835296,0.04195215892946413,0.0,0.0,0.0,0.0,0.0,0.0,0.0,0.0,0.0,0.0,0.0,0.0,0.0,0.0,0.0,0.0,0.0,0.0,0.0,0.0,0.0,0.0,0.0,0.0,0.0,0.0,0.0,0.0,0.0,0.0,0.0,0.0,0.0,0.0,0.0,0.0,0.0,0.0,0.0,0.0,0.0,0.0,0.0,0.0,0.0,0.0,0.0,0.0,0.0,0.0,0.0,0.0,0.0,0.0,0.0,0.0,0.0,0.0,0.0,0.0,0.0,0.0,0.0,0.0,0.0,0.0,0.0,0.0,0.0,0.0,0.0,0.0,0.0,0.0,0.0,0.0,0.0,0.0,0.0,0.0,0.0,0.0,0.0,0.0,0.0,0.0,0.0,0.0,0.0,0.0,0.0,0.0,0.0,0.0,0.0,0.0,0.0,0.0,0.0,0.0,0.0,0.0,0.0,0.0,0.0,0.0,0.0,0.0,0.0,0.0,0.0,0.0,0.0,0.0,0.0,0.0,0.0,0.0,0.0,0.0,0.0,0.0,0.0,0.0,0.0,0.0,0.0,0.0,0.0,0.0,0.0,0.0,0.0,0.0,0.0,0.0,0.0,0.0,0.0,0.0,0.0,0.0,0.0,0.0,0.0,0.0,0.0,0.0,0.0,0.0,0.0,0.0,0.0,0.0,0.0,0.0,0.0,0.0,0.0,0.0,0.0,0.0,0.0,0.0,0.0,0.0,0.0,0.0,0.0,0.0,0.0,0.0,0.0,0.0,0.0,0.0,0.0,0.0,0.0,0.0,0.0,0.0,0.0,0.0,0.0,0.0,0.0,0.0,0.0,0.0,0.0,0.0,0.0,0.0,0.0,0.0,0.0,0.0,0.0,0.0,0.0,0.0,0.0,0.0,0.0,0.0,0.0,0.0,0.0,0.0,0.0,0.0,0.0,0.0,0.0,0.0,0.0,0.0,0.0,0.0,0.0,0.0,0.0,0.0,0.0,0.0,0.0,0.0,0.0,0.0,0.0,0.0,0.0,0.0,0.0,0.0,0.0,0.0,0.0,-0.00020366176820053219,0.0029002311957145844,0.006457846697634374,0.010143184031014755,0.013587763181745888,0.016688665680124032,0.019418861220214433,0.02188483440192314,0.024284866566045196,0.026776523638423044,0.029616609626351282,0.032934323923417726,0.03673701675023554,0.04089762269092267,0.04510539767820209,0.04911986959945919,0.05265751321240327,0.05549541841250076,0.057510378815800144,0.05862766408327275,0.059020296646543464,0.05889953780239816,0.0585157530700531,0.058103308006147936,0.05777294420703465,0.05767376779480984,0.05782966078451099,0.058198209213623654,0.058696237196495735,0.05917399233516285,0.05960974347152053,0.05998155815955158,0.06030346250508719,0.060609350328931416,0.06087653779274355,0.061180121777652516,0.0615480854334278,0.06199497689285124,0.06252246346136708,0.06306505870011891,0.06366403470851108,0.06433395924255994,0.06508643048027822,0.06591509308709309,0.06672995368231359,0.06751877791906279,0.06823475131830498,0.06883852909718291,0.0693077227128191,0.06959010295186845,0.06975566383788209,0.06987492058585758,0.07002290768574246,0.07025062980672908,0.0705070693803559,0.07080018204060871,0.07106578500652909,0.07122261253442734,0.07119353690063908,0.07086668784280363,0.07029363244058935,0.0,0.0,0.0,0.0,0.0,0.0,0.0,0.0,0.0,0.0,0.0,0.0,0.0,0.0,0.0,0.0,0.0,0.0,0.0,0.0,0.0,0.0,0.0,0.0,0.0,0.0,0.0,0.0,0.0,0.0,0.0,0.0,0.0,0.0,0.0,0.0,0.0,0.0,0.0,0.0,0.0,0.0,0.0,0.0,0.0,0.0,0.0,0.0,0.0,0.0,0.0,0.0,0.0,0.0,0.0,0.0,0.0,0.0,0.0,0.0,0.0,0.0,0.0,0.0,0.0,0.0,0.0,0.0,0.0,0.0,0.0,0.0,0.0,0.0,0.0,0.0,0.0,0.0,0.0,0.0,0.0,0.0,0.0,0.0,0.0,0.0,0.0,0.0,0.0,0.0,0.0,0.0,0.0,0.0,0.0,0.0,0.0,0.0,0.0,0.0,0.0,0.0,0.0,0.0,0.0,0.0,0.0,0.0,0.0,0.0,0.0,0.0,0.0,0.0,0.0,0.0,0.0,0.0,0.0,0.0,0.0,0.0,0.0,0.0,0.0,0.0,0.0,0.0,0.0,0.0,0.0,0.0,0.0,0.0,0.0,0.0,0.0,0.0,0.0,0.0,0.0,0.0,0.0,0.0,0.0,0.0,0.0,0.0,0.0,0.0,0.0,0.0,0.0,0.0,0.0,0.0,0.0,0.0,0.0,0.0,0.0,0.0,0.0,0.0,0.0,0.0,0.0,0.0,0.0,0.0,0.0,0.0,0.0,0.0,0.0,0.0,0.0,0.0,0.0,0.0,0.0,0.0,0.0,0.0,0.0,0.0,0.0,0.0,0.0,0.0,0.0,0.0,0.0,0.0,0.0,0.0,0.0,0.0,0.0,0.0,0.0,0.0,0.0,0.0,0.0,0.0,0.0,0.0,0.0,0.0,0.0,0.0,0.0,0.0,0.0,0.0,0.0,0.0,0.0,0.0,0.0,0.0,0.0,0.0,0.0,0.0,0.0,0.0,0.0,0.0,0.0,0.0,0.0,0.0,0.0,0.0,0.0,0.0,0.0
0.03931745984794274,0.039889906058073236,0.040537008748749874,0.041102332472539096,0.0415993230330535,0.0419806399127246,0.042219429750694246,0.04230863076744826,0.042182326654835296,0.04195215892946413,0.04164405552752669,0.04127907196481877,0.04087720074097039,0.040366065331019975,0.039897391665359515,0.03954102146967252,0.03936974807857677,0.03944577071449252,0.039685358584250034,0.040228129000488395,0.041076716456774826,0.042194615188757494,0.04350191294865959,0.04484159544849143,0.04610656092199834,0.04710286517471462,0.047636951993729575,0.047558055182826665,0.046849666463523384,0.04551079382486721,0.043603480360357195,0.04125550899882946,0.038654864797560036,0.03602961436452723,0.033653664287494604,0.03173343989086915,0.030412209222211745,0.029751674412293396,0.029662610788321685,0.030117338033231748,0.03096673613724431,0.032032320083343,0.03313993691061668,0.03407664886351009,0.03484981184581262,0.03546842215992189,0.03599745836671761,0.036528199408939976,0.03705499051360974,0.03771011929218892,0.03849594935512461,0.039355228532513754,0.040192031668263385,0.04083402507613947,0.04134209931602028,0.04182408403141124,0.04253295828919735,0.04385586392758678,0.04618242278726525,0.050045378883209,0.05576373855637055,0.0,0.0,0.0,0.0,0.0,0.0,0.0,0.0,0.0,0.0,0.0,0.0,0.0,0.0,0.0,0.0,0.0,0.0,0.0,0.0,0.0,0.0,0.0,0.0,0.0,0.0,0.0,0.0,0.0,0.0,0.0,0.0,0.0,0.0,0.0,0.0,0.0,0.0,0.0,0.0,0.0,0.0,0.0,0.0,0.0,0.0,0.0,0.0,0.0,0.0,0.0,0.0,0.0,0.0,0.0,0.0,0.0,0.0,0.0,0.0,0.0,0.0,0.0,0.0,0.0,0.0,0.0,0.0,0.0,0.0,0.0,0.0,0.0,0.0,0.0,0.0,0.0,0.0,0.0,0.0,0.0,0.0,0.0,0.0,0.0,0.0,0.0,0.0,0.0,0.0,0.0,0.0,0.0,0.0,0.0,0.0,0.0,0.0,0.0,0.0,0.0,0.0,0.0,0.0,0.0,0.0,0.0,0.0,0.0,0.0,0.0,0.0,0.0,0.0,0.0,0.0,0.0,0.0,0.0,0.0,0.0,0.0,0.0,0.0,0.0,0.0,0.0,0.0,0.0,0.0,0.0,0.0,0.0,0.0,0.0,0.0,0.0,0.0,0.0,0.0,0.0,0.0,0.0,0.0,0.0,0.0,0.0,0.0,0.0,0.0,0.0,0.0,0.0,0.0,0.0,0.0,0.0,0.0,0.0,0.0,0.0,0.0,0.0,0.0,0.0,0.0,0.0,0.0,0.0,0.0,0.0,0.0,0.0,0.0,0.0,0.0,0.0,0.0,0.0,0.0,0.0,0.0,0.0,0.0,0.0,0.0,0.0,0.0,0.0,0.0,0.0,0.0,0.0,0.0,0.0,0.0,0.0,0.0,0.0,0.0,0.0,0.0,0.0,0.0,0.0,0.0,0.0,0.0,0.0,0.0,0.0,0.0,0.0,0.0,0.0,0.0,0.0,0.0,0.0,0.0,0.0,0.0,0.0,0.0,0.0,0.0,0.0,0.0,0.0,0.0,0.0,0.0,0.0,0.0,0.0,0.0,0.0,0.0,0.0,0.06987492058585758,0.07002290768574246,0.07025062980672908,0.0705070693803559,0.07080018204060871,0.07106578500652909,0.07122261253442734,0.07119353690063908,0.07086668784280363,0.07029363244058935,0.06952435867718951,0.06864295539330346,0.06774409524064617,0.06682040926172264,0.06601290397486617,0.06534582272656556,0.06479552436575996,0.06429465358065325,0.06363300666237898,0.06283969188029506,0.06187056001439172,0.06072447967677901,0.059448313360217164,0.05792953163317454,0.05649772109715428,0.055359187384670216,0.05469455264199213,0.054601973139781074,0.05477107549103736,0.05535766937157462,0.05627721502173742,0.05742594747635305,0.0586924995394694,0.059785675817146666,0.06077969422579125,0.061631060193385497,0.06230786422617787,0.06278302593915773,0.06297046970986549,0.06294500363876294,0.06272303656598709,0.062349244624098375,0.06190066382741824,0.06141087365765167,0.061061322283962126,0.06090770777554205,0.060929089409267535,0.06101830171567875,0.06093178182164429,0.06055467141912675,0.05971545902179967,0.05833476043944272,0.056481337453597916,0.0543280931929517,0.05235481255800879,0.051029854768035364,0.05079223985464413,0.0519443731915171,0.054495589356528436,0.05834741419088149,0.06306515881182287,0.0,0.0,0.0,0.0,0.0,0.0,0.0,0.0,0.0,0.0,0.0,0.0,0.0,0.0,0.0,0.0,0.0,0.0,0.0,0.0,0.0,0.0,0.0,0.0,0.0,0.0,0.0,0.0,0.0,0.0,0.0,0.0,0.0,0.0,0.0,0.0,0.0,0.0,0.0,0.0,0.0,0.0,0.0,0.0,0.0,0.0,0.0,0.0,0.0,0.0,0.0,0.0,0.0,0.0,0.0,0.0,0.0,0.0,0.0,0.0,0.0,0.0,0.0,0.0,0.0,0.0,0.0,0.0,0.0,0.0,0.0,0.0,0.0,0.0,0.0,0.0,0.0,0.0,0.0,0.0,0.0,0.0,0.0,0.0,0.0,0.0,0.0,0.0,0.0,0.0,0.0,0.0,0.0,0.0,0.0,0.0,0.0,0.0,0.0,0.0,0.0,0.0,0.0,0.0,0.0,0.0,0.0,0.0,0.0,0.0,0.0,0.0,0.0,0.0,0.0,0.0,0.0,0.0,0.0,0.0,0.0,0.0,0.0,0.0,0.0,0.0,0.0,0.0,0.0,0.0,0.0,0.0,0.0,0.0,0.0,0.0,0.0,0.0,0.0,0.0,0.0,0.0,0.0,0.0,0.0,0.0,0.0,0.0,0.0,0.0,0.0,0.0,0.0,0.0,0.0,0.0,0.0,0.0,0.0,0.0,0.0,0.0,0.0,0.0,0.0,0.0,0.0,0.0,0.0,0.0,0.0,0.0,0.0,0.0,0.0,0.0,0.0,0.0,0.0,0.0,0.0,0.0,0.0,0.0,0.0,0.0,0.0,0.0,0.0,0.0,0.0,0.0,0.0,0.0,0.0,0.0,0.0,0.0,0.0,0.0,0.0,0.0,0.0,0.0,0.0,0.0,0.0,0.0,0.0,0.0,0.0,0.0,0.0,0.0,0.0,0.0,0.0,0.0,0.0,0.0,0.0,0.0,0.0,0.0,0.0,0.0,0.0,0.0,0.0,0.0,0.0,0.0,0.0,0.0,0.0,0.0,0.0,0.0,0.0
0.039355228532513754,0.040192031668263385,0.04083402507613947,0.04134209931602028,0.04182408403141124,0.04253295828919735,0.04385586392758678,0.04618242278726525,0.050045378883209,0.05576373855637055,0.06337619775368689,0.07252909168625309,0.08234844202727343,0.09168586404860862,0.09901457989542642,0.10268953403968918,0.10120231944491939,0.09339126711193713,0.07889753688952987,0.05812961698925673,0.032370239406134683,0.0036789904329708315,-0.0254149020424336,-0.05202503754458376,-0.07352470392138874,-0.08785950495872091,-0.09384433857897773,-0.09139989796529595,-0.08129379437451043,-0.06520956521017414,-0.0453721950501493,-0.024178237629670817,-0.0038989584644827397,0.013848481069623832,0.028068589860486985,0.038493186684321036,0.045487863319636106,0.04979192946103338,0.0524793507739056,0.054527573978091236,0.05667943361651551,0.05933024014343915,0.06244218148400066,0.06581711944992427,0.06902389963230819,0.0715985916165392,0.0731726169672422,0.07349380947689024,0.07266893746122152,0.07093932962846779,0.06867159560867854,0.06626495794594388,0.06399114729898046,0.06214885519688737,0.06082074219136077,0.05994544367352112,0.059357298924645543,0.05877219488870123,0.058080753529267164,0.057170991013483774,0.05602006789115414,0.0,0.0,0.0,0.0,0.0,0.0,0.0,0.0,0.0,0.0,0.0,0.0,0.0,0.0,0.0,0.0,0.0,0.0,0.0,0.0,0.0,0.0,0.0,0.0,0.0,0.0,0.0,0.0,0.0,0.0,0.0,0.0,0.0,0.0,0.0,0.0,0.0,0.0,0.0,0.0,0.0,0.0,0.0,0.0,0.0,0.0,0.0,0.0,0.0,0.0,0.0,0.0,0.0,0.0,0.0,0.0,0.0,0.0,0.0,0.0,0.0,0.0,0.0,0.0,0.0,0.0,0.0,0.0,0.0,0.0,0.0,0.0,0.0,0.0,0.0,0.0,0.0,0.0,0.0,0.0,0.0,0.0,0.0,0.0,0.0,0.0,0.0,0.0,0.0,0.0,0.0,0.0,0.0,0.0,0.0,0.0,0.0,0.0,0.0,0.0,0.0,0.0,0.0,0.0,0.0,0.0,0.0,0.0,0.0,0.0,0.0,0.0,0.0,0.0,0.0,0.0,0.0,0.0,0.0,0.0,0.0,0.0,0.0,0.0,0.0,0.0,0.0,0.0,0.0,0.0,0.0,0.0,0.0,0.0,0.0,0.0,0.0,0.0,0.0,0.0,0.0,0.0,0.0,0.0,0.0,0.0,0.0,0.0,0.0,0.0,0.0,0.0,0.0,0.0,0.0,0.0,0.0,0.0,0.0,0.0,0.0,0.0,0.0,0.0,0.0,0.0,0.0,0.0,0.0,0.0,0.0,0.0,0.0,0.0,0.0,0.0,0.0,0.0,0.0,0.0,0.0,0.0,0.0,0.0,0.0,0.0,0.0,0.0,0.0,0.0,0.0,0.0,0.0,0.0,0.0,0.0,0.0,0.0,0.0,0.0,0.0,0.0,0.0,0.0,0.0,0.0,0.0,0.0,0.0,0.0,0.0,0.0,0.0,0.0,0.0,0.0,0.0,0.0,0.0,0.0,0.0,0.0,0.0,0.0,0.0,0.0,0.0,0.0,0.0,0.0,0.0,0.0,0.0,0.0,0.0,0.0,0.0,0.0,0.0,0.05833476043944272,0.056481337453597916,0.0543280931929517,0.05235481255800879,0.051029854768035364,0.05079223985464413,0.0519443731915171,0.054495589356528436,0.05834741419088149,0.06306515881182287,0.06806118643080626,0.07275961816865954,0.07672834469365691,0.08006552217394101,0.08327258529967188,0.08733166059994234,0.09357486314580196,0.10337041559546356,0.11797036040103359,0.13793124952762997,0.1628956978865844,0.1914534848154333,0.22115047867710533,0.24895343274205237,0.27149692580901663,0.2857047327918699,0.28933210648506463,0.28132874052762447,0.2622221276280582,0.23386325774532338,0.19919100589554403,0.1617514175518341,0.12507701789601577,0.09234292539724016,0.06574776968950471,0.046369846831126195,0.03417072861860351,0.028128358067963436,0.026761228708925014,0.028277750575760815,0.030997796536707388,0.033615085128438,0.035265321284224646,0.03576810491852637,0.035281956830281375,0.03421811410249771,0.033059441638272485,0.03212500756114256,0.03173681703258322,0.03192349897091559,0.03253842905522802,0.03333548253437854,0.03397031736285811,0.034349787710034274,0.034395405320946676,0.03412367994769875,0.03361152343048459,0.032857082330968325,0.03203046551573325,0.031174957141785104,0.03029441848036937,0.0,0.0,0.0,0.0,0.0,0.0,0.0,0.0,0.0,0.0,0.0,0.0,0.0,0.0,0.0,0.0,0.0,0.0,0.0,0.0,0.0,0.0,0.0,0.0,0.0,0.0,0.0,0.0,0.0,0.0,0.0,0.0,0.0,0.0,0.0,0.0,0.0,0.0,0.0,0.0,0.0,0.0,0.0,0.0,0.0,0.0,0.0,0.0,0.0,0.0,0.0,0.0,0.0,0.0,0.0,0.0,0.0,0.0,0.0,0.0,0.0,0.0,0.0,0.0,0.0,0.0,0.0,0.0,0.0,0.0,0.0,0.0,0.0,0.0,0.0,0.0,0.0,0.0,0.0,0.0,0.0,0.0,0.0,0.0,0.0,0.0,0.0,0.0,0.0,0.0,0.0,0.0,0.0,0.0,0.0,0.0,0.0,0.0,0.0,0.0,0.0,0.0,0.0,0.0,0.0,0.0,0.0,0.0,0.0,0.0,0.0,0.0,0.0,0.0,0.0,0.0,0.0,0.0,0.0,0.0,0.0,0.0,0.0,0.0,0.0,0.0,0.0,0.0,0.0,0.0,0.0,0.0,0.0,0.0,0.0,0.0,0.0,0.0,0.0,0.0,0.0,0.0,0.0,0.0,0.0,0.0,0.0,0.0,0.0,0.0,0.0,0.0,0.0,0.0,0.0,0.0,0.0,0.0,0.0,0.0,0.0,0.0,0.0,0.0,0.0,0.0,0.0,0.0,0.0,0.0,0.0,0.0,0.0,0.0,0.0,0.0,0.0,0.0,0.0,0.0,0.0,0.0,0.0,0.0,0.0,0.0,0.0,0.0,0.0,0.0,0.0,0.0,0.0,0.0,0.0,0.0,0.0,0.0,0.0,0.0,0.0,0.0,0.0,0.0,0.0,0.0,0.0,0.0,0.0,0.0,0.0,0.0,0.0,0.0,0.0,0.0,0.0,0.0,0.0,0.0,0.0,0.0,0.0,0.0,0.0,0.0,0.0,0.0,0.0,0.0,0.0,0.0,0.0,0.0,0.0,0.0,0.0,0.0,0.0
0.06626495794594388,0.06399114729898046,0.06214885519688737,0.06082074219136077,0.05994544367352112,0.059357298924645543,0.05877219488870123,0.058080753529267164,0.057170991013483774,0.05602006789115414,0.05469161259746298,0.05322812991169045,0.05189359808577693,0.05084597107756529,0.05020255649117665,0.05002592627028042,0.05022610976055297,0.0508895191655995,0.051932053640617266,0.05323282644979337,0.054653846954508985,0.05601146613888448,0.05722101430022093,0.058199342443435075,0.05889395093492044,0.059281767638737534,0.05937290754153497,0.05915008944438102,0.05870787462963922,0.05816527983267806,0.0576307088501894,0.05713942794233515,0.05673268104152561,0.056417425596754577,0.05617733023610615,0.05597965006164127,0.05570817150231463,0.0554119079332539,0.05507837749837672,0.05470700198196647,0.05430855528200024,0.05372333265888635,0.053172066676295905,0.0527556238546627,0.05256353549633755,0.0526374605023592,0.052662125380386574,0.052834360001210924,0.05313713579647017,0.053552846214802614,0.05405843162368693,0.05445645245642354,0.054852170075807546,0.055201086125666765,0.055436830177598644,0.055479402745014665,0.055223908486511965,0.05467219898665152,0.053806826054691906,0.052664384654151554,0.051344474007690336,0.0,0.0,0.0,0.0,0.0,0.0,0.0,0.0,0.0,0.0,0.0,0.0,0.0,0.0,0.0,0.0,0.0,0.0,0.0,0.0,0.0,0.0,0.0,0.0,0.0,0.0,0.0,0.0,0.0,0.0,0.0,0.0,0.0,0.0,0.0,0.0,0.0,0.0,0.0,0.0,0.0,0.0,0.0,0.0,0.0,0.0,0.0,0.0,0.0,0.0,0.0,0.0,0.0,0.0,0.0,0.0,0.0,0.0,0.0,0.0,0.0,0.0,0.0,0.0,0.0,0.0,0.0,0.0,0.0,0.0,0.0,0.0,0.0,0.0,0.0,0.0,0.0,0.0,0.0,0.0,0.0,0.0,0.0,0.0,0.0,0.0,0.0,0.0,0.0,0.0,0.0,0.0,0.0,0.0,0.0,0.0,0.0,0.0,0.0,0.0,0.0,0.0,0.0,0.0,0.0,0.0,0.0,0.0,0.0,0.0,0.0,0.0,0.0,0.0,0.0,0.0,0.0,0.0,0.0,0.0,0.0,0.0,0.0,0.0,0.0,0.0,0.0,0.0,0.0,0.0,0.0,0.0,0.0,0.0,0.0,0.0,0.0,0.0,0.0,0.0,0.0,0.0,0.0,0.0,0.0,0.0,0.0,0.0,0.0,0.0,0.0,0.0,0.0,0.0,0.0,0.0,0.0,0.0,0.0,0.0,0.0,0.0,0.0,0.0,0.0,0.0,0.0,0.0,0.0,0.0,0.0,0.0,0.0,0.0,0.0,0.0,0.0,0.0,0.0,0.0,0.0,0.0,0.0,0.0,0.0,0.0,0.0,0.0,0.0,0.0,0.0,0.0,0.0,0.0,0.0,0.0,0.0,0.0,0.0,0.0,0.0,0.0,0.0,0.0,0.0,0.0,0.0,0.0,0.0,0.0,0.0,0.0,0.0,0.0,0.0,0.0,0.0,0.0,0.0,0.0,0.0,0.0,0.0,0.0,0.0,0.0,0.0,0.0,0.0,0.0,0.0,0.0,0.0,0.0,0.0,0.0,0.0,0.0,0.0,0.03333548253437854,0.03397031736285811,0.034349787710034274,0.034395405320946676,0.03412367994769875,0.03361152343048459,0.032857082330968325,0.03203046551573325,0.031174957141785104,0.03029441848036937,0.029375226041672687,0.028303592531016466,0.027245288084088895,0.026294575567770376,0.025561876198471514,0.025138928652860788,0.024932787323639273,0.025071860001924393,0.025481823076216447,0.02604330991786636,0.026630398418617595,0.026961961774097803,0.027252006228067786,0.027519843503635923,0.027800134031915467,0.028121868184374402,0.02824668523814616,0.028488994919009344,0.028773531237231014,0.028994711418637905,0.02907819055288353,0.028855342673308734,0.028654089234151164,0.02865948278152504,0.029067399364873556,0.030034512921392656,0.031530299659171354,0.033635413967273424,0.036259553208596175,0.03923987403582544,0.04237236981352627,0.04534442016513448,0.04809678436820223,0.050562510914607284,0.052747554441551464,0.05471022670565987,0.05642303045897057,0.05807079378331085,0.05973931164135183,0.06147753373546483,0.0632891845723815,0.06516562083496233,0.06703239769313361,0.06879808232002245,0.07040428562855246,0.07186814243910312,0.07346272366735955,0.07522405180324242,0.07722515196350341,0.07947022146118586,0.08188634849377709,0.0,0.0,0.0,0.0,0.0,0.0,0.0,0.0,0.0,0.0,0.0,0.0,0.0,0.0,0.0,0.0,0.0,0.0,0.0,0.0,0.0,0.0,0.0,0.0,0.0,0.0,0.0,0.0,0.0,0.0,0.0,0.0,0.0,0.0,0.0,0.0,0.0,0.0,0.0,0.0,0.0,0.0,0.0,0.0,0.0,0.0,0.0,0.0,0.0,0.0,0.0,0.0,0.0,0.0,0.0,0.0,0.0,0.0,0.0,0.0,0.0,0.0,0.0,0.0,0.0,0.0,0.0,0.0,0.0,0.0,0.0,0.0,0.0,0.0,0.0,0.0,0.0,0.0,0.0,0.0,0.0,0.0,0.0,0.0,0.0,0.0,0.0,0.0,0.0,0.0,0.0,0.0,0.0,0.0,0.0,0.0,0.0,0.0,0.0,0.0,0.0,0.0,0.0,0.0,0.0,0.0,0.0,0.0,0.0,0.0,0.0,0.0,0.0,0.0,0.0,0.0,0.0,0.0,0.0,0.0,0.0,0.0,0.0,0.0,0.0,0.0,0.0,0.0,0.0,0.0,0.0,0.0,0.0,0.0,0.0,0.0,0.0,0.0,0.0,0.0,0.0,0.0,0.0,0.0,0.0,0.0,0.0,0.0,0.0,0.0,0.0,0.0,0.0,0.0,0.0,0.0,0.0,0.0,0.0,0.0,0.0,0.0,0.0,0.0,0.0,0.0,0.0,0.0,0.0,0.0,0.0,0.0,0.0,0.0,0.0,0.0,0.0,0.0,0.0,0.0,0.0,0.0,0.0,0.0,0.0,0.0,0.0,0.0,0.0,0.0,0.0,0.0,0.0,0.0,0.0,0.0,0.0,0.0,0.0,0.0,0.0,0.0,0.0,0.0,0.0,0.0,0.0,0.0,0.0,0.0,0.0,0.0,0.0,0.0,0.0,0.0,0.0,0.0,0.0,0.0,0.0,0.0,0.0,0.0,0.0,0.0,0.0,0.0,0.0,0.0,0.0,0.0,0.0,0.0,0.0,0.0,0.0,0.0,0.0
0.05445645245642354,0.054852170075807546,0.055201086125666765,0.055436830177598644,0.055479402745014665,0.055223908486511965,0.05467219898665152,0.053806826054691906,0.052664384654151554,0.051344474007690336,0.050003707401006244,0.048833162040492074,0.04795317797394916,0.047418036936077365,0.04720954527036601,0.047287649637512794,0.047523529803580135,0.047753700081359145,0.047841503930943205,0.047727853434350334,0.04744744158784846,0.04718605424739313,0.04713237867892151,0.04745732944754145,0.04824616159833466,0.049379290721192855,0.050731936392672115,0.05197800882477429,0.05275790657920886,0.052819987283876,0.05211061907457444,0.051134119932188124,0.050779635967502214,0.05235055346455535,0.057393812969417354,0.06734256444909974,0.08339491721706811,0.10591717550779042,0.13424809099538546,0.16659062549336845,0.20004470264891566,0.23116547847649085,0.2562277431688094,0.27189415984714976,0.27578743801731953,0.2668517816437306,0.24578597548761147,0.2147288860084078,0.17698333432756,0.13646382703439108,0.09697479036042882,0.06183753484275435,0.033181507539605394,0.011790096914997413,-0.0028597839485373796,-0.012388827066955998,-0.01880251651101896,-0.02421322655060796,-0.030276529381156672,-0.03784980382892852,-0.04694508139592777,0.0,0.0,0.0,0.0,0.0,0.0,0.0,0.0,0.0,0.0,0.0,0.0,0.0,0.0,0.0,0.0,0.0,0.0,0.0,0.0,0.0,0.0,0.0,0.0,0.0,0.0,0.0,0.0,0.0,0.0,0.0,0.0,0.0,0.0,0.0,0.0,0.0,0.0,0.0,0.0,0.0,0.0,0.0,0.0,0.0,0.0,0.0,0.0,0.0,0.0,0.0,0.0,0.0,0.0,0.0,0.0,0.0,0.0,0.0,0.0,0.0,0.0,0.0,0.0,0.0,0.0,0.0,0.0,0.0,0.0,0.0,0.0,0.0,0.0,0.0,0.0,0.0,0.0,0.0,0.0,0.0,0.0,0.0,0.0,0.0,0.0,0.0,0.0,0.0,0.0,0.0,0.0,0.0,0.0,0.0,0.0,0.0,0.0,0.0,0.0,0.0,0.0,0.0,0.0,0.0,0.0,0.0,0.0,0.0,0.0,0.0,0.0,0.0,0.0,0.0,0.0,0.0,0.0,0.0,0.0,0.0,0.0,0.0,0.0,0.0,0.0,0.0,0.0,0.0,0.0,0.0,0.0,0.0,0.0,0.0,0.0,0.0,0.0,0.0,0.0,0.0,0.0,0.0,0.0,0.0,0.0,0.0,0.0,0.0,0.0,0.0,0.0,0.0,0.0,0.0,0.0,0.0,0.0,0.0,0.0,0.0,0.0,0.0,0.0,0.0,0.0,0.0,0.0,0.0,0.0,0.0,0.0,0.0,0.0,0.0,0.0,0.0,0.0,0.0,0.0,0.0,0.0,0.0,0.0,0.0,0.0,0.0,0.0,0.0,0.0,0.0,0.0,0.0,0.0,0.0,0.0,0.0,0.0,0.0,0.0,0.0,0.0,0.0,0.0,0.0,0.0,0.0,0.0,0.0,0.0,0.0,0.0,0.0,0.0,0.0,0.0,0.0,0.0,0.0,0.0,0.0,0.0,0.0,0.0,0.0,0.0,0.0,0.0,0.0,0.0,0.0,0.0,0.0,0.0,0.0,0.0,0.0,0.0,0.0,0.06516562083496233,0.06703239769313361,0.06879808232002245,0.07040428562855246,0.07186814243910312,0.07346272366735955,0.07522405180324242,0.07722515196350341,0.07947022146118586,0.08188634849377709,0.0844513752059591,0.0869161054878867,0.08906526139292621,0.09074159758737363,0.09190455454845105,0.09270974565103225,0.09332244755484913,0.09394597852372966,0.09473285416127628,0.09573199920825522,0.0968319940083314,0.09792194581952972,0.09882042596552344,0.09938401621632602,0.0995594438680594,0.09926061819379522,0.09877061016533781,0.09832376069236133,0.09811215451560217,0.09820209083145076,0.09833582741524986,0.09843532170279219,0.09828679545308615,0.09774961809328694,0.09684473779484215,0.09562326666836699,0.09467481750248286,0.09458006499973332,0.09583295845869119,0.09860084033521423,0.102299923220647,0.10610232003497529,0.10842349581081183,0.10723103454920895,0.10035694287558632,0.08568148514017922,0.06232281376702557,0.030404817324364668,-0.008585168005541967,-0.051872557287102786,-0.09600716813160574,-0.1366364783522753,-0.16987965043248987,-0.1928334116125676,-0.20410205744979187,-0.20431185949661593,-0.1951087432924771,-0.1794312021947214,-0.16063555796123116,-0.14177948376765553,-0.1253107152863822,0.0,0.0,0.0,0.0,0.0,0.0,0.0,0.0,0.0,0.0,0.0,0.0,0.0,0.0,0.0,0.0,0.0,0.0,0.0,0.0,0.0,0.0,0.0,0.0,0.0,0.0,0.0,0.0,0.0,0.0,0.0,0.0,0.0,0.0,0.0,0.0,0.0,0.0,0.0,0.0,0.0,0.0,0.0,0.0,0.0,0.0,0.0,0.0,0.0,0.0,0.0,0.0,0.0,0.0,0.0,0.0,0.0,0.0,0.0,0.0,0.0,0.0,0.0,0.0,0.0,0.0,0.0,0.0,0.0,0.0,0.0,0.0,0.0,0.0,0.0,0.0,0.0,0.0,0.0,0.0,0.0,0.0,0.0,0.0,0.0,0.0,0.0,0.0,0.0,0.0,0.0,0.0,0.0,0.0,0.0,0.0,0.0,0.0,0.0,0.0,0.0,0.0,0.0,0.0,0.0,0.0,0.0,0.0,0.0,0.0,0.0,0.0,0.0,0.0,0.0,0.0,0.0,0.0,0.0,0.0,0.0,0.0,0.0,0.0,0.0,0.0,0.0,0.0,0.0,0.0,0.0,0.0,0.0,0.0,0.0,0.0,0.0,0.0,0.0,0.0,0.0,0.0,0.0,0.0,0.0,0.0,0.0,0.0,0.0,0.0,0.0,0.0,0.0,0.0,0.0,0.0,0.0,0.0,0.0,0.0,0.0,0.0,0.0,0.0,0.0,0.0,0.0,0.0,0.0,0.0,0.0,0.0,0.0,0.0,0.0,0.0,0.0,0.0,0.0,0.0,0.0,0.0,0.0,0.0,0.0,0.0,0.0,0.0,0.0,0.0,0.0,0.0,0.0,0.0,0.0,0.0,0.0,0.0,0.0,0.0,0.0,0.0,0.0,0.0,0.0,0.0,0.0,0.0,0.0,0.0,0.0,0.0,0.0,0.0,0.0,0.0,0.0,0.0,0.0,0.0,0.0,0.0,0.0,0.0,0.0,0.0,0.0,0.0,0.0,0.0,0.0,0.0,0.0,0.0,0.0,0.0,0.0,0.0,0.0
