0.04911957338827197,0.05456450285887023,0.006602408284153975,0.019862420967823126,0.025578722977351507,-0.02209023840386887,-0.016157046932573926,0.02810453472435908,-0.0039166341352552154,0.010053265386629172,-0.006389401641232027,0.030822231279751304,0.037643631102489604,0.04465193330885215,0.036575356106506626,0.05163207834217458,0.05926700240172781,0.03656622735332074,0.052313014042188,0.02246134362894039,0.038718397090628506,0.04760360108677212,0.049126372583625975,0.058578800214788077,0.09125272698199342,0.09366660940890671,0.08111154133962689,0.09180251281322892,0.11810537925503482,0.1294611725497795,0.17172488248204512,0.1379217546770638,0.15031982141588604,0.10958423493323252,0.13034013145959875,0.143817183080121,0.11945168439264987,0.1413010335492359,0.1558758442753691,0.18610057221811543,0.1937672549039244,0.20944009294045368,0.19490922451501713,0.21130265356923042,0.19748413201579706,0.19165526820891907,0.18616795402609235,0.20393894243916894,0.22967678136685885,0.27865481840385753,0.2591648849635123,0.2705337902519373,0.25161649595466024,0.26352988857104714,0.2680506835632175,0.29572737232791696,0.3236169221097526,0.3211333666737958,0.3264622152845761,0.3472215521690924,0.3528205550298954,0.37379830420316973,0.3872019320236042,0.40828397604773836,0.47521940235047455,0.4886349484186958,0.47141825312506364,0.4693788766955196,0.48247529320869365,0.5106636298488321,0.48512450783964595,0.5051480016255324,0.5553999373882341,0.6052607058841362,0.6393908305552859,0.7188623569669444,0.7671979465620812,0.8607457633253682,0.9077381287129082,0.8928176088787306,0.8541124151849416,0.7762561110068817,0.4986903471470028,0.05953071903673446,-0.3655634841760914,-0.49395290319979723,-0.47852637624414646,-0.36514544819565775,-0.153777474879061,0.04866450890105245,0.2575453546829952,0.3736078480424188,0.48862985789506114,0.5339168334212581,0.5401106936068223,0.5302092330107248,0.5348490004811434,0.5235322550786953,0.5268902203603903,0.537344228008591,0.532030065569209,0.48808083386701506,0.46668297684587073,0.44496449477604955,0.44589978356898696,0.4542537401002729,0.4777133962746022,0.45519041914389974,0.4402159098332243,0.4557528741448411,0.44070611353204825,0.38746833458249347,0.4336176823640693,0.41871362573869564,0.3962742010747624,0.3968909866445077,0.41294630513579256,0.3986132205681727,0.3233456419150266,0.3399904013078151,0.3186588849708375,0.28228987602987393,0.26146201915895373,0.263828183054703,0.25883265489028034,0.2770500414393238,0.22679037782940697,0.1921157753194064,0.18067266278956598,0.16189923432788111,0.1816473290857768,0.16350469923571645,0.16860437588165647,0.1358152951212673,0.1415517371984783,0.1323225709552791,0.10812614137369357,0.10716740603626293,0.09887768831075182,0.060329230570568826,0.04500832922742404,0.04526934030547996,0.030542030259229677,0.0008217585671623037,0.017235370739010523,-0.011919388677773002,-0.002591399931079127,-0.008274598095012724,0.016876240894081424,0.049934033602608396,0.014481428317048236,-0.005428624650125512,-0.002157795820324483,0.03193276000438148,-0.017781184470264267,0.016809812976632824,0.013441599756866426,-0.004962418756021892,0.0456527343449055,0.06594759117218349,0.05592136852944189,0.08434604706642387,0.0824471406578915,0.09607156408848687,0.07936836179505652,0.05525919144069576,0.039023859004016545,0.06886625869569672,0.09129263149502684,0.07573323857802702,0.08331534276965222,0.06818546043122348,0.06854569461676592,0.0767490783969564,0.09278975695667299,0.07845421752203009,0.0795844866397751,0.08853201468684739,0.11293076380310182,0.09164115988425055,0.06286197712695343,0.0724329863647452,0.0668547311665083,0.08432485104828565,0.056060283455023306,0.03554082169020174,0.015114340014489327,0.0024114446697946663,0.035628485697023704,0.00013270422637188078,0.010534808525836877,0.005692044818385015,0.016159064765032285,-0.026848421388196087,0.006563041718934582,0.01704581476646016,-0.010691771111374166,-0.00024401189730475416,-0.04331619439464825,-0.002369936945360291,-0.030238026874554614,0.04882953187166221,0.013229956140670183,0.023432960765907764,0.018306003993476313,0.013130975331416949,0.015548217915076403,0.010273644696901672,0.02787181994429628,0.030134162972371033,0.03234213763585748,0.01921123774797482,0.05187134383799769,0.008057324154827393,0.0023888877135510387,0.004298061231822167,0.013782678853553158,0.02319909838967585,0.017262153895053485,-0.01931343657094276,-0.0024741283049444663,-0.0009936386805961493,0.015693462925413293,0.024662517633349253,0.05647897199488283,0.034727781451655976,0.04346417074661213,-0.0090102703977228,0.03777384022857718,-0.02250309163724336,0.02411916721994861,0.01717170051794818,0.010146206973596293,0.02596848007453381,0.026432623835971787,0.01153988664409276,-0.011067160435365502,-0.010821639508075435,0.019920014172508924,0.027670754667291898,0.05828234939187354,0.058267514453313865,0.019987403602972006,0.004575972838704096,0.05788416853599944,0.05000945280897301,0.05736827910310465,0.0035477539631230738,-0.019753296368802797,0.01803229786933133,0.032851760362569454,0.0017838633758609588,0.07001922145418922,0.054165881988223405,0.06120682629415094,0.0376542131625878,0.0140758986194363,-0.0018848141084901059,-0.0025846921738710807,-0.003304688200069029,0.011240310106007541,0.048694274140154925,0.05556948035522396,0.05479251015943837,-0.007124881313123574,0.04557243238929631,0.029491876976486187,0.013408660104326005,0.04317347744128767,0.03473222528707856,0.03393531639948278,0.04842571566178628,0.017073124696623768,0.03921755469421305,0.015521105569615227,0.02239914253162806,0.0522109499141035,0.04382551615646037,0.02016757191278557,-0.02640419066111223,0.018732097235505677,0.04095716752126009,0.04791493593707531,0.039607658595363665,0.0313202617192065,0.045978928336066476,0.007170771917330907,0.03716050194927872,0.021327691941424205,0.0590124651956538,0.027952647937837898,0.04277087145442588,0.01941180135909414,0.019007531421974606,0.01099260024210006,0.0,0.0,0.0,0.0,0.0,0.042985496170566066,0.04772870053027015,0.04481877489551937,0.05718585968711592,0.05426968733326722,0.04371697854625337,0.017891273004569254,0.06849480475658357,0.004495889215348356,0.02457669629628453,0.052326999099089326,0.011336447839978735,0.04679662153772945,0.051731032720625104,0.04142623741663114,0.046451442683897885,0.03624400970799383,0.04137270615866874,0.008350115216205817,0.05180061973619312,0.03418055101538855,0.03954817178500773,0.02205684154804715,0.01991572533606198,0.002560784312330534,0.03876679301627091,0.05976232601524111,0.0731903124693776,0.056127563356489385,0.06970652697224052,0.05279609349168878,0.05888662719737216,0.04212931543659464,0.04837250923561642,0.062332710232725436,0.05344326851831483,0.08283468063131852,0.03588371451281768,0.04249327889606975,0.04152973202890053,0.02534940359146165,0.03979859951396509,0.03138458602483815,0.02302897878625423,-0.00055403767591511,-0.0088016649246463,0.02120749326798944,-0.009867608194701083,-0.010331749380018728,-0.0031105955726011577,0.011795533987128118,-0.0038206586480465147,0.01881383739443011,-0.011998155746476596,-0.03512481314750127,-0.01999898943127981,0.03338397826610361,-0.012515534455577702,-0.02778639942283938,0.0105033327161353,0.03359079290901606,0.02620324348552941,0.0036335981921346966,0.034664823657794074,-0.0029565027233802183,0.028325487769533773,0.036823299444985864,-0.0003776114319437607,0.0007883950847691089,-0.00551773751122956,0.0036380239158001182,0.043548781843987146,0.18299780446006153,0.35322195503870557,0.5695131851349972,0.900651864092959,1.132681684511737,1.395507303651502,1.4828037022863312,1.3639923450352935,0.9626385534429001,0.45446883890019013,0.053412173818807994,-0.08009492563251762,-0.10655731373824992,-0.010718774383406512,-0.02183952347377946,-0.03295474555392275,-0.028795008525752303,0.005912250409643688,-0.005255128535104692,0.014109762144866995,0.01050959686617044,0.006861527923349979,0.033724109905639524,0.022316950139867096,-0.012084509398271144,-0.008356209261784124,-0.02763621945807705,-0.008798538671885618,0.03287091142615948,0.036238315970555275,0.024225699010659588,0.012113448561575924,0.022823286352586854,-0.004779129723686064,0.02100084096243439,-0.006819532851584526,-0.03475253573631865,-0.01695125924939764,0.00837850327302641,0.06416420760582464,0.03578708046321318,0.06079603754662427,0.04749617034185644,0.07994572773603083,0.10465653396727825,0.09870583291578804,0.07737761939245162,0.10944557857771581,0.1261368215957924,0.11980955108439473,0.1363115228958487,0.12979243572263274,0.14609876481170286,0.1317374234930699,0.09434623334431545,0.1103354508399726,0.08800285418457168,0.0808333119162013,0.08117961381728461,0.03554541644763886,0.043263067322498946,0.043194184533856254,0.004765989229062298,0.0043858543819873304,-0.0038021483462348173,0.00311912436032672,-0.020705916562372986,-0.044718327347257926,-0.015432832637154599,-0.0016231863165816545,0.027277236803809682,-0.005145151681372684,-0.007192070024868922,-0.0017865703301247736,-0.01949247629660737,-0.03738325800088196,-0.03253053373426493,-0.027851099434608777,-0.015692841268363802,0.003957545609792105,0.0005490374944038211,-0.010620680051665719,0.0010289854746073552,-0.0026934580432171743,0.05464231477360832,0.06607196895816064,0.10038435771345312,0.10410472639986457,0.09253091204005418,0.10388459566107237,0.12289681173668882,0.12665662047501983,0.1686670160268665,0.18780853661981212,0.17645106104508035,0.1804537129499324,0.1539772756142318,0.1275961784760207,0.17773281014300923,0.14392382111911012,0.14843880242313623,0.16835898344398187,0.16548194169118055,0.14745314193539452,0.09135140216687998,0.08123517090762426,0.10182352696783736,0.07670350424048,0.11285654372506261,0.10330296730869219,0.06332581007854697,0.07698068419103733,0.060210878634687645,0.05122257497739098,0.05001437951927517,0.03366027791957005,0.055648554192351325,0.04720404656751509,0.015965863458930068,0.02306306115895243,0.0150027934905055,0.045272466758647927,0.014530315400983726,0.029753628244990445,0.03744906977040725,0.037613339587552364,0.068450224274767,0.05354149970357887,0.061656241505206835,0.03165852527790731,0.055241215192216066,0.04070210090185787,0.03388488302261992,0.06535014897443621,0.035753584427361186,0.036786919367563536,0.0378784275304996,0.046663472930400754,0.03256995597598923,0.06436445671338871,0.04270138580010727,-0.009501890445841335,0.0070863292133715354,0.038969551841679516,0.017368339386021555,0.0034077912710413255,0.004722736180964883,0.013665076075712735,-0.015620584911847079,-0.014367888334111902,-0.020789359585353027,0.0033183893162937214,0.012104718072434914,-0.017356665679246555,-0.001011747027216892,0.022931860340507523,0.031549548537226614,0.040123869230310465,0.02572994212601436,0.041857234737990995,0.01209035360471802,0.02812570251733515,0.02118907311905241,0.03712793906468291,-0.0004736094191158538,-0.01520257089189434,-0.022343357032400615,0.016311248623572933,0.0014243979910139278,-0.005870286875172081,0.0020706250592100275,0.017608212820259726,0.025462090238276846,0.017993237945171207,0.018128328633098954,0.03351103534267768,0.01829475657416116,0.018330181384718567,-0.004588095911681854,-0.004609569382560908,0.0106265188749518,0.048764274358166805,0.056316110690405416,0.04856729125768617,0.010236978494776387,0.04830736948277674,0.032875509994990115,0.03271603017740539,0.017264482843694324,0.009446441126098548,0.016904482149096272,0.024356771276936962,0.0318042990368078,0.008682114801342022,0.03904693156179302,-0.007005316696042222,0.008072028272578238,0.023148464307949052,0.015300723103595298,0.038019969037463644,0.037816922186444106,0.0070508415836275234,-0.0007875640811106007,0.0295851044145249,0.021754862999324505,0.006287947473997539,-0.001532424820410433,-0.0017059776679398493,0.028692075255749943,0.013247769388111376,-0.0021897258109897545,0.005304328351442066,0.012806149536307944,0.02031629341089034,0.004910887083700984,0.05064632387922536,0.04290114665797988,0.0810143806437436,0.01979828158898273,0.01972289388123439,0.019655972479071245,-0.0033275520600318273,0.04246897518165295,0.0,0.0,0.0,0.0,0.0,N
0.2680506835632175,0.29572737232791696,0.3236169221097526,0.3211333666737958,0.3264622152845761,0.3472215521690924,0.3528205550298954,0.37379830420316973,0.3872019320236042,0.40828397604773836,0.47521940235047455,0.4886349484186958,0.47141825312506364,0.4693788766955196,0.48247529320869365,0.5106636298488321,0.48512450783964595,0.5051480016255324,0.5553999373882341,0.6052607058841362,0.6393908305552859,0.7188623569669444,0.7671979465620812,0.8607457633253682,0.9077381287129082,0.8928176088787306,0.8541124151849416,0.7762561110068817,0.4986903471470028,0.05953071903673446,-0.3655634841760914,-0.49395290319979723,-0.47852637624414646,-0.36514544819565775,-0.153777474879061,0.04866450890105245,0.2575453546829952,0.3736078480424188,0.48862985789506114,0.5339168334212581,0.5401106936068223,0.5302092330107248,0.5348490004811434,0.5235322550786953,0.5268902203603903,0.537344228008591,0.532030065569209,0.48808083386701506,0.46668297684587073,0.44496449477604955,0.44589978356898696,0.4542537401002729,0.4777133962746022,0.45519041914389974,0.4402159098332243,0.4557528741448411,0.44070611353204825,0.38746833458249347,0.4336176823640693,0.41871362573869564,0.3962742010747624,0.3968909866445077,0.41294630513579256,0.3986132205681727,0.3233456419150266,0.3399904013078151,0.3186588849708375,0.28228987602987393,0.26146201915895373,0.263828183054703,0.25883265489028034,0.2770500414393238,0.22679037782940697,0.1921157753194064,0.18067266278956598,0.16189923432788111,0.1816473290857768,0.16350469923571645,0.16860437588165647,0.1358152951212673,0.1415517371984783,0.1323225709552791,0.10812614137369357,0.10716740603626293,0.09887768831075182,0.060329230570568826,0.04500832922742404,0.04526934030547996,0.030542030259229677,0.0008217585671623037,0.017235370739010523,-0.011919388677773002,-0.002591399931079127,-0.008274598095012724,0.016876240894081424,0.049934033602608396,0.014481428317048236,-0.005428624650125512,-0.002157795820324483,0.03193276000438148,-0.017781184470264267,0.016809812976632824,0.013441599756866426,-0.004962418756021892,0.0456527343449055,0.06594759117218349,0.05592136852944189,0.08434604706642387,0.0824471406578915,0.09607156408848687,0.07936836179505652,0.05525919144069576,0.039023859004016545,0.06886625869569672,0.09129263149502684,0.07573323857802702,0.08331534276965222,0.06818546043122348,0.06854569461676592,0.0767490783969564,0.09278975695667299,0.07845421752203009,0.0795844866397751,0.08853201468684739,0.11293076380310182,0.09164115988425055,0.06286197712695343,0.0724329863647452,0.0668547311665083,0.08432485104828565,0.056060283455023306,0.03554082169020174,0.015114340014489327,0.0024114446697946663,0.035628485697023704,0.00013270422637188078,0.010534808525836877,0.005692044818385015,0.016159064765032285,-0.026848421388196087,0.006563041718934582,0.01704581476646016,-0.010691771111374166,-0.00024401189730475416,-0.04331619439464825,-0.002369936945360291,-0.030238026874554614,0.04882953187166221,0.013229956140670183,0.023432960765907764,0.018306003993476313,0.013130975331416949,0.015548217915076403,0.010273644696901672,0.02787181994429628,0.030134162972371033,0.03234213763585748,0.01921123774797482,0.05187134383799769,0.008057324154827393,0.0023888877135510387,0.004298061231822167,0.013782678853553158,0.02319909838967585,0.017262153895053485,-0.01931343657094276,-0.0024741283049444663,-0.0009936386805961493,0.015693462925413293,0.024662517633349253,0.05647897199488283,0.034727781451655976,0.04346417074661213,-0.0090102703977228,0.03777384022857718,-0.02250309163724336,0.02411916721994861,0.01717170051794818,0.010146206973596293,0.02596848007453381,0.026432623835971787,0.01153988664409276,-0.011067160435365502,-0.010821639508075435,0.019920014172508924,0.027670754667291898,0.05828234939187354,0.058267514453313865,0.019987403602972006,0.004575972838704096,0.05788416853599944,0.05000945280897301,0.05736827910310465,0.0035477539631230738,-0.019753296368802797,0.01803229786933133,0.032851760362569454,0.0017838633758609588,0.07001922145418922,0.054165881988223405,0.06120682629415094,0.0376542131625878,0.0140758986194363,-0.0018848141084901059,-0.0025846921738710807,-0.003304688200069029,0.011240310106007541,0.048694274140154925,0.05556948035522396,0.05479251015943837,-0.007124881313123574,0.04557243238929631,0.029491876976486187,0.013408660104326005,0.04317347744128767,0.03473222528707856,0.03393531639948278,0.04842571566178628,0.017073124696623768,0.03921755469421305,0.015521105569615227,0.02239914253162806,0.0522109499141035,0.04382551615646037,0.02016757191278557,-0.02640419066111223,0.018732097235505677,0.04095716752126009,0.04791493593707531,0.039607658595363665,0.0313202617192065,0.045978928336066476,0.007170771917330907,0.03716050194927872,0.021327691941424205,0.0590124651956538,0.027952647937837898,0.04277087145442588,0.01941180135909414,0.019007531421974606,0.01099260024210006,0.04121599980758976,-0.020226794237948542,-0.005223773466606164,-0.02075338224129874,0.0019598927150477593,0.0323546232960536,0.024586461910526748,0.009225447620902223,0.032124406242654245,0.009231385138554793,-0.005959541782516934,0.0018383790180207097,0.01734664786452131,0.010003846204094599,-0.004902802193342868,-0.004444668734431275,-0.003899933272974149,-0.0261878082619196,0.020394686979560633,-0.0016906243061509943,-0.008379830412550597,0.030900957077454334,0.016821690339381388,0.018164173582798572,0.06550285269545036,0.0595073504187492,0.03839314914798251,0.03273397889901119,0.05017901319392743,0.03724562314353389,0.07035566128903128,0.01961151319129691,0.053131951497201464,0.02573600224640112,0.05205189046972253,0.03274697692309919,0.05188327832719676,0.07890082502768096,0.052673568583128376,0.0572627080588032,0.11559754041073177,0.07485361489988987,0.08022264166385118,0.1011424951906045,0.1299750133829533,0.08266698000448158,0.0738423548532396,0.06529558753889043,0.0646694875153689,0.1483796313427412,0.178880536638754,0.2020208953471817,0.2407241404810925,0.2491396013650084,0.0,0.0,0.0,0.0,0.0,-0.03512481314750127,-0.01999898943127981,0.03338397826610361,-0.012515534455577702,-0.02778639942283938,0.0105033327161353,0.03359079290901606,0.02620324348552941,0.0036335981921346966,0.034664823657794074,-0.0029565027233802183,0.028325487769533773,0.036823299444985864,-0.0003776114319437607,0.0007883950847691089,-0.00551773751122956,0.0036380239158001182,0.043548781843987146,0.18299780446006153,0.35322195503870557,0.5695131851349972,0.900651864092959,1.132681684511737,1.395507303651502,1.4828037022863312,1.3639923450352935,0.9626385534429001,0.45446883890019013,0.053412173818807994,-0.08009492563251762,-0.10655731373824992,-0.010718774383406512,-0.02183952347377946,-0.03295474555392275,-0.028795008525752303,0.005912250409643688,-0.005255128535104692,0.014109762144866995,0.01050959686617044,0.006861527923349979,0.033724109905639524,0.022316950139867096,-0.012084509398271144,-0.008356209261784124,-0.02763621945807705,-0.008798538671885618,0.03287091142615948,0.036238315970555275,0.024225699010659588,0.012113448561575924,0.022823286352586854,-0.004779129723686064,0.02100084096243439,-0.006819532851584526,-0.03475253573631865,-0.01695125924939764,0.00837850327302641,0.06416420760582464,0.03578708046321318,0.06079603754662427,0.04749617034185644,0.07994572773603083,0.10465653396727825,0.09870583291578804,0.07737761939245162,0.10944557857771581,0.1261368215957924,0.11980955108439473,0.1363115228958487,0.12979243572263274,0.14609876481170286,0.1317374234930699,0.09434623334431545,0.1103354508399726,0.08800285418457168,0.0808333119162013,0.08117961381728461,0.03554541644763886,0.043263067322498946,0.043194184533856254,0.004765989229062298,0.0043858543819873304,-0.0038021483462348173,0.00311912436032672,-0.020705916562372986,-0.044718327347257926,-0.015432832637154599,-0.0016231863165816545,0.027277236803809682,-0.005145151681372684,-0.007192070024868922,-0.0017865703301247736,-0.01949247629660737,-0.03738325800088196,-0.03253053373426493,-0.027851099434608777,-0.015692841268363802,0.003957545609792105,0.0005490374944038211,-0.010620680051665719,0.0010289854746073552,-0.0026934580432171743,0.05464231477360832,0.06607196895816064,0.10038435771345312,0.10410472639986457,0.09253091204005418,0.10388459566107237,0.12289681173668882,0.12665662047501983,0.1686670160268665,0.18780853661981212,0.17645106104508035,0.1804537129499324,0.1539772756142318,0.1275961784760207,0.17773281014300923,0.14392382111911012,0.14843880242313623,0.16835898344398187,0.16548194169118055,0.14745314193539452,0.09135140216687998,0.08123517090762426,0.10182352696783736,0.07670350424048,0.11285654372506261,0.10330296730869219,0.06332581007854697,0.07698068419103733,0.060210878634687645,0.05122257497739098,0.05001437951927517,0.03366027791957005,0.055648554192351325,0.04720404656751509,0.015965863458930068,0.02306306115895243,0.0150027934905055,0.045272466758647927,0.014530315400983726,0.029753628244990445,0.03744906977040725,0.037613339587552364,0.068450224274767,0.05354149970357887,0.061656241505206835,0.03165852527790731,0.055241215192216066,0.04070210090185787,0.03388488302261992,0.06535014897443621,0.035753584427361186,0.036786919367563536,0.0378784275304996,0.046663472930400754,0.03256995597598923,0.06436445671338871,0.04270138580010727,-0.009501890445841335,0.0070863292133715354,0.038969551841679516,0.017368339386021555,0.0034077912710413255,0.004722736180964883,0.013665076075712735,-0.015620584911847079,-0.014367888334111902,-0.020789359585353027,0.0033183893162937214,0.012104718072434914,-0.017356665679246555,-0.001011747027216892,0.022931860340507523,0.031549548537226614,0.040123869230310465,0.02572994212601436,0.041857234737990995,0.01209035360471802,0.02812570251733515,0.02118907311905241,0.03712793906468291,-0.0004736094191158538,-0.01520257089189434,-0.022343357032400615,0.016311248623572933,0.0014243979910139278,-0.005870286875172081,0.0020706250592100275,0.017608212820259726,0.025462090238276846,0.017993237945171207,0.018128328633098954,0.03351103534267768,0.01829475657416116,0.018330181384718567,-0.004588095911681854,-0.004609569382560908,0.0106265188749518,0.048764274358166805,0.056316110690405416,0.04856729125768617,0.010236978494776387,0.04830736948277674,0.032875509994990115,0.03271603017740539,0.017264482843694324,0.009446441126098548,0.016904482149096272,0.024356771276936962,0.0318042990368078,0.008682114801342022,0.03904693156179302,-0.007005316696042222,0.008072028272578238,0.023148464307949052,0.015300723103595298,0.038019969037463644,0.037816922186444106,0.0070508415836275234,-0.0007875640811106007,0.0295851044145249,0.021754862999324505,0.006287947473997539,-0.001532424820410433,-0.0017059776679398493,0.028692075255749943,0.013247769388111376,-0.0021897258109897545,0.005304328351442066,0.012806149536307944,0.02031629341089034,0.004910887083700984,0.05064632387922536,0.04290114665797988,0.0810143806437436,0.01979828158898273,0.01972289388123439,0.019655972479071245,-0.0033275520600318273,0.04246897518165295,0.004215970273719538,0.050024740333209146,0.027065468004988137,0.027034640775800665,0.04228969785028423,0.04990503357452338,0.01931337600343886,0.011644661778875808,0.01161418254905551,0.026861536266913434,0.03446044344377485,0.0038430354406090296,-0.011502725414413967,-0.003937625064347794,-0.004028630906703451,-0.019417971736587446,-0.004257309730449885,0.003247534373157132,0.01838132817882598,0.04114591336812838,0.0027699461319258237,0.0025938834703487005,0.01769489105100675,-0.005415697798605375,0.002036639257341291,0.04005384546189776,0.04750621513352357,0.009112571377497098,0.024213322408135767,0.031678279180738254,-0.029622868416009564,0.054271785451459074,0.023556760543400657,0.031064866765559675,0.030950970330344437,0.015577056339200908,-0.007412135175927953,0.030759696673013957,0.02311609554541434,0.030792457841013303,0.03086806110965525,0.046270757994941486,0.061720972586795736,0.04665598793600298,0.0774931462859262,0.0854619145891758,0.116413194972746,0.11685854929929121,0.1250064154775836,0.14849882775295098,0.14148701143992326,0.08104581388691456,0.0512297428047227,0.052036897405658054,0.0,0.0,0.0,0.0,0.0,N
0.7350924599138623,0.42573215553964977,-0.045124121841837984,-0.387186645874191,-0.4859148647909338,-0.41776781516109246,-0.2820827361695599,-0.05589390157599961,0.13860357070904922,0.30148315017848665,0.3716859745659645,0.4409807710428705,0.4406638566545578,0.43193407586798876,0.46070516014549295,0.4429839489535571,0.44760407508635347,0.4975482273622639,0.4858921242538306,0.45853809334594514,0.45374457792020356,0.4792019091970379,0.45090069156189816,0.43765823024417516,0.4165921178577099,0.4030250329385634,0.3740702968488355,0.3679708545668563,0.34655323229272794,0.3327737551136744,0.3266626508227352,0.31296557365882527,0.30699236391830265,0.3164098422269829,0.32595892972083845,0.3203789654866307,0.3226149330298441,0.32504439459043827,0.32768475417638177,0.2923445163602985,0.27252800540313377,0.2682478999445306,0.21074242240003577,0.24520918954057838,0.23411093524602436,0.18509680936110467,0.20515370413064052,0.17966539587784977,0.14684373201091686,0.17546548098174417,0.1585532156420639,0.14959918321236476,0.16388756393368545,0.11736287709638174,0.10936373877717448,0.11696490075560922,0.11724056799253761,0.08726436062430759,0.057599496483147675,0.05880875707948341,0.04504008749951439,0.04685568721239825,0.05661025627348344,0.05137535077433371,0.03878806312592879,0.04940959339051774,0.045027854105964576,0.017996330132863787,0.044724284461957343,0.04879179324884932,0.06840053166783691,0.027130108294135546,0.03195470592448673,0.05994363937962631,0.06524169917873755,0.009634830965481195,0.053586480084555396,0.02133603062883185,0.02749788278040712,0.049140142873086164,0.00984059585253957,-0.006352667340115391,0.031118211134538838,0.05347277966455055,0.0301377052602844,0.022236845680298798,0.04504517893857979,0.05270593312349016,0.05285229499621848,0.045475732945613356,0.053491815627071566,0.0004769713625584451,0.01632664176716889,-0.005948834051764116,0.002414262761393807,0.026124212932094017,0.019323465743776636,-0.0027140213997880283,-0.0017900231841353033,-0.008479150046836756,-0.007507113317215328,-0.006523183333362585,-0.013175917257604973,-0.042754707392526625,0.034639947682240574,0.005046143163920966,0.036574543183718326,0.029884867148518138,0.061390112974000155,0.016466758084649483,-0.005548291450731639,0.002984329990776313,0.011497240906408905,-0.01821840997092261,0.013174655773626922,0.006337621394316598,0.030043610810962514,0.007878074244460999,-0.006668955976881588,0.024609603399521174,0.010016736851609441,-0.004598507022555204,0.0036885057633815,0.042519936368592234,0.035481924240302935,0.020782218866173045,0.028986937481566458,-0.016318274386688265,0.007129909763083288,0.007635631073740294,0.031049182206731522,0.008598995005235031,0.009059533234656239,0.0400735789240307,0.0175864106926355,0.018013658488014603,0.026073406213566214,0.011200738019047385,0.019245156113927676,0.027283013119917335,0.027673475118294745,0.012775571775272691,0.005514013760385783,0.013530538179961037,0.0062595803568848835,0.03719151123077075,0.014629028432517545,0.00734519533162946,0.015339908568399344,0.023330118371794665,0.01603269827124004,0.04693749872963743,0.024346648035584676,0.03231550117169613,0.04027746874723068,0.017665799793941284,0.017969545225655133,0.02590457404313122,0.01090375571405369,-0.019392895603391743,-0.011496691213751799,-0.01889746789393187,0.019537852404943323,-0.04137513776100866,0.004685979238088143,0.02018208374985092,0.02040312954548781,0.020638969485788188,-0.002027919797478091,0.013540838402029314,0.021503445645590515,0.05243258421703718,0.02227900624285737,0.007463753382779575,0.038559026845454904,0.023873713037977824,0.009262692740447005,0.025297817679047208,0.026136344839755916,-0.003498775909840358,0.035737097256236035,0.013945293267443488,0.03047060764798482,0.016545759656760636,0.03330804852509741,0.02727286811540793,-0.016837280036765857,0.03852906609326457,0.009983864679468211,0.04272143948548096,0.045050964232710225,0.024620311990132586,0.03492585962794961,0.05304931248805935,0.01022347222701554,-0.009490027891703374,-0.0213685186767468,0.005160299671931776,0.016614753694235256,0.020644782869962987,0.047824608133168925,0.05995525360992334,0.07232768820197642,0.0543838519787641,0.07490423632604791,0.08040578322753973,0.10910251825786209,0.0922276971652803,0.07563585282558379,0.08989814729072727,0.0968122708493322,0.1422314675687014,0.16502812965734237,0.2110543059638659,0.2421052169268163,0.25818230192658015,0.24400288013211033,0.2989048024409656,0.29298105445607314,0.2873594983232069,0.27439343769879915,0.2846420136551623,0.3104557210840485,0.29069344776842126,0.263551442167405,0.297790318643583,0.286415912420817,0.2829031214675373,0.3330839568299375,0.3605257375558141,0.33464284632922514,0.3547525955310052,0.3597000726315955,0.3800260494505519,0.39277931540834665,0.3367994855818328,0.35724349190349386,0.3623814821854802,0.3368963664492261,0.3571667009208473,0.37730607986183706,0.3896335859135557,0.4093907797149871,0.4365343640518365,0.46337753991323605,0.5280800546725437,0.5694604258606513,0.6638807177763155,0.7807197796187221,0.8358629572847479,0.8368891511844634,0.8754290856825694,0.8215071102604554,0.80495266190501,0.5888012376192013,0.18061086460826756,-0.1981026383338595,-0.4480876329503608,-0.47771511607644995,-0.35578406791837147,-0.22746263417308604,0.021924303599826056,0.23198109845475431,0.3798581809927085,0.4656291864372291,0.4893658507209514,0.4893448558439498,0.5038404369770452,0.4870683792973606,0.4772979520492527,0.4822301697644833,0.4789978411143571,0.4752971829900269,0.463539107608091,0.48198087975527903,0.454255623882667,0.4415402417050703,0.44387772491779004,0.4078186736161979,0.3716089266191334,0.3887751933374165,0.3752961379690956,0.33884593894834464,0.33294562728469373,0.3346999913312347,0.2982877901848993,0.30014938692545284,0.3173847402389427,0.3194508532218072,0.2834445968894577,0.25523433858710903,0.2654041187516422,0.2681221532215022,0.2404796953425628,0.2283397514340011,0.0,0.0,0.0,0.0,0.0,0.1577118850856052,-0.12971497092079098,-0.17263928770222223,-0.07806593993706613,-0.0064735854700884886,0.003929811601028831,0.006634360281316157,0.03220578539872263,-0.003412044030719746,0.014402405889627665,0.02451753181907576,-0.018915431909745,-0.0012748218557021536,-0.006615003521164377,0.0032730561823654087,-0.0021740748153501453,0.03817761316226267,0.002067420104700468,0.011761010078973157,0.021412030276154174,0.008098433610289274,0.05587843373271371,0.034849468207712446,0.06727670501565548,0.04618149260934108,0.009772485068854846,0.011541015252167865,0.013280909042733513,0.03791757336032339,0.03196180029342036,0.018338740769383674,0.027614840749245268,0.044507725444286966,0.05373488199158683,0.07822084920296704,0.08739971331711903,0.10419535336720896,0.0751166629610926,0.09185965674067119,0.09329087691104386,0.0641251354350721,0.0654913262479759,0.059179109704531434,0.0604680026016035,0.07699577099783429,0.11639987861185239,0.07169558154331582,0.06514119917272053,0.08144850523451608,0.09004603807180735,0.08328629331319591,0.03059695182906995,0.023668555541140092,0.024286761060894026,0.05536874539843634,0.04049265117529978,-0.005066197718618001,0.010381868570068366,-0.020150824726005653,-0.004974178374014264,-0.005225275666269847,-0.028550543449418462,-0.03674718311287143,-0.022175503115109636,-0.015399595145590042,-0.03169853453562489,-0.01757684007091807,-0.0035920224458104865,-0.012658467712161387,0.008724327747046033,0.03764352167651763,0.05118622819932044,0.04936373774893633,0.07803581388375212,0.12193033460207085,0.1046431489817311,0.07967422877436263,0.10816447735852446,0.09842530288814447,0.10395521470557606,0.10183768159991435,0.115004381640226,0.059406115909728344,0.06495384606461256,0.07052186566363121,0.07611578223770121,0.08174085070841133,0.07211903573309048,0.07782062232086032,0.0759253509869435,0.05115402798612484,0.06464162837317763,0.07818395847796858,0.03829359173687344,0.029028897834613994,0.02746768719051192,0.04125344445009732,0.03982224270709215,0.0613830423720655,0.060088601474954574,0.05886446471455375,0.07299442150397575,0.03370596366459136,0.0403382245844995,0.0470425271111678,0.053818721456987094,0.04538351293636399,0.014094792612771767,0.013441863373513996,0.020499409205187728,0.04290786625576991,0.011893019749447837,0.026792446909913576,0.02647311379959867,0.026216400945443016,0.03366210166614324,0.03352551367036785,0.01052176635627695,0.010497460235857093,0.010526049628193592,0.0335296654211167,0.010732927760116114,0.02618938599584113,0.026406348646163882,0.03430554170876992,-0.0036059892771424626,0.012007726553403578,0.01237099609553031,0.012764069475145174,0.01318422527782644,0.013628678268804793,-0.00882978723583875,0.006937548206003347,-0.007844489459238076,0.00031216850991629553,0.01612324249737509,0.0013800867981813084,0.024854342888606374,0.04069582270437183,0.018337123594833336,0.01890809754232533,-0.0034418629538771972,0.012416907862454269,0.02063403492708782,0.03649071983264674,0.014136422260185008,0.03762515176262113,-2.552385609656473e-05,-0.0071203990082452226,0.03162118589192075,0.016858744227937227,0.02500509265892079,-0.012714678460545883,0.0336022221081894,-0.011798400208741183,0.003911650238680917,-0.01096486501708493,0.004703892851656077,-0.010212473148013573,0.035984713325011096,0.04395872772992582,0.028994488242474248,-0.001264761597912732,0.06016298973052098,0.06045040925095526,0.014881869710457074,0.038080354558814374,0.03834949208425853,0.04625599765603795,0.03123475615454566,0.03149351476425559,0.016466770911791526,0.03964486782562089,0.00933042438954358,0.00957932264453033,0.017467030181988637,0.032993331224735876,-0.012615170923631016,0.041111607354059325,0.01842093503854434,0.018652249888801483,0.011240165233668711,0.011467930196780976,-0.0035885365124252726,-0.003363189625444303,-0.01842128170419596,-0.0029131973808420243,0.012597880307474366,0.020473409605384928,0.013074785768119384,0.03625348558258031,0.05180491719232271,0.03680721715882237,0.006545537232341136,0.01451211934042615,0.03778462425619478,0.02287482082147008,0.00035029222437136425,0.016061416964262224,-0.014046160536418694,0.009368040061866522,0.002250917259723049,0.01045405504301865,0.018697387401640585,0.04226661542589756,0.020032798292417917,-0.002152848357806419,0.013919336109550255,0.014761758737315818,0.03858421508372969,0.05482333331416818,0.07876427772897818,0.09512611914114244,0.0886275345422548,0.1204012737200571,0.12931636584182887,0.14593869618057287,0.13206040984339293,0.08768019645728412,0.07392772408858667,0.09080058366126378,0.061881448033914425,0.048298723230357395,0.06533177681112508,0.09769391547243621,0.09189084503825327,0.04027651191900733,0.08039204508171692,0.0059129041904944805,0.05371852782433976,0.01748394412261828,0.004183561181704944,-0.0014715778045354603,0.023436823653327513,-0.02807753048084831,0.01209132090895336,0.029318177125193825,-0.022249129402201365,-0.012709451452681904,-0.026120263733286252,-0.03191601091304879,-0.0683017498200181,-0.035933318093067074,0.0422766578123745,0.18162623931946775,0.4126961861534338,0.6972932563242273,1.012505054046221,1.2666426034834366,1.513199508285438,1.5993437581365635,1.4792161445210505,0.9923276395642313,0.4213862001858265,0.018529002296662253,-0.14750380134762126,-0.13023542811918498,-0.0825139954838287,-0.011987606530867525,0.012571835738559472,0.006449570415351536,-0.007427771426096485,-0.013775045801916599,0.010335051752719251,0.034340950433270075,0.004756663231913049,0.013283673446885361,0.02171870826764435,-0.01578302637739463,0.007762663700129464,0.0006636461665506399,0.024056846728371703,0.055023184504446855,0.047719093801372674,0.047998191921915734,0.025299309146629735,0.017834129349177767,0.025606935693305397,0.048621922172111226,0.048675880530643555,0.018131178775036855,0.04104739964411517,0.0257305738392976,0.05623998820651534,0.01031552018662261,0.010223320986111707,-0.0051654259903109526,0.025283689028245963,0.04808374388802773,0.032672054544857235,0.009617335277232627,0.032412501531401634,0.03992859802682052,0.03216814616183197,0.024416377377137297,0.0,0.0,0.0,0.0,0.0,N
0.80495266190501,0.5888012376192013,0.18061086460826756,-0.1981026383338595,-0.4480876329503608,-0.47771511607644995,-0.35578406791837147,-0.22746263417308604,0.021924303599826056,0.23198109845475431,0.3798581809927085,0.4656291864372291,0.4893658507209514,0.4893448558439498,0.5038404369770452,0.4870683792973606,0.4772979520492527,0.4822301697644833,0.4789978411143571,0.4752971829900269,0.463539107608091,0.48198087975527903,0.454255623882667,0.4415402417050703,0.44387772491779004,0.4078186736161979,0.3716089266191334,0.3887751933374165,0.3752961379690956,0.33884593894834464,0.33294562728469373,0.3346999913312347,0.2982877901848993,0.30014938692545284,0.3173847402389427,0.3194508532218072,0.2834445968894577,0.25523433858710903,0.2654041187516422,0.2681221532215022,0.2404796953425628,0.2283397514340011,0.20879103183244813,0.2276941987598468,0.23156995752821427,0.19750369434927134,0.21720146022506626,0.22953922178568847,0.1886747693392748,0.1939523875086661,0.16896195616134613,0.15955566288565096,0.19630194077478685,0.10344914439143825,0.13316611797834946,0.11734117218545323,0.10946414226964866,0.08660972835523048,0.10990808651519984,0.09530129776310343,0.11920144526821681,0.08990812915449085,0.08383236007748593,0.06276287651200128,0.0419781816697562,0.06732228431878486,0.06237570585342332,0.019491724640655253,0.04564512980905039,0.05677424196169632,0.04523170190277517,0.056860050463979794,0.07636996357709858,0.057906013502970144,0.0625927584500563,0.07513991867000766,0.019125262709287875,0.016804009324300432,0.03760218479164827,0.058587186210562026,0.033901858141325354,0.017027665163057443,0.00031426360419201934,-0.008605865659814313,-0.0021002433248229293,-0.018384301585503693,-0.003975815001318313,0.0029117302648297384,0.017555409651182564,0.009383554981284794,0.01659750388570193,-0.014298911034867749,0.0083857018435674,0.015873540845385885,0.008159855950526049,-0.014760182228777863,0.04644746907519525,0.06187460956724754,0.04680044872564859,0.039428251183643556,0.0015464991454904181,-0.02100051905639072,-0.005292887350098583,0.048666940857555394,0.0415381020292914,0.03445004098928684,0.019758901287139804,0.03566938327828951,-0.0018771889591208844,-0.0011862083123544362,0.007173833181487217,0.015558920703115145,0.03160791324942326,0.02475231780933017,0.06376239628695488,0.01108900607261973,0.0042750600809424765,-0.002531500442674042,0.013590337955941834,0.022071645324783302,-0.0076565762398462,0.008458387640245495,0.0016408818645061928,0.010095576837886507,0.0032540411768585058,0.004037976918730584,-0.01812111406811525,0.005547162849585059,-0.001372718199880753,0.02224987634409923,0.015282432967576191,0.008289785019311893,0.008912324907880197,0.03243185843560422,-0.012850220954258446,-0.012313401225534742,-0.011806501267222458,0.011595923388866267,0.01204734524447046,0.03539863693380448,0.04344460758493859,0.03618716354613007,0.028910903627947123,0.02925879086246577,-0.0009750853288022136,0.03754940534983907,0.0072873857042866684,0.007578890916315968,-0.007423722280038962,0.02341223275224237,0.038956870421007345,0.016287462286311387,0.031819998078624415,0.024424198922966513,0.0017427204284365938,0.04783264450988251,0.002224489402970554,-0.005176181798229956,-0.0049343688182582205,-0.01233166995903389,0.018482423983955974,0.003454861398406341,0.026644504798728125,0.011639647728863748,-0.0033497268496530076,-0.003038058701550068,-0.0027052887382020764,-0.025272524098081384,-0.017246066490486645,-0.016827274847019475,0.03712304323180174,-0.0005736020156385747,-0.0076449664725696245,0.008276516144506781,0.0013518641775319411,0.0021566030126100063,-0.012223932622196265,0.004068674802230043,0.01283800081918702,0.006453419989296177,0.007850062053872347,0.017038659959107347,0.018746997715533995,0.012985683825734045,0.03797250727067244,0.024944824305453993,0.03504453364811124,0.04535740602313724,0.0558934014603799,0.0819451628880057,0.0700319601831046,0.058370111609044435,0.05460976589869468,0.08168368961971549,0.0708269181788452,0.07553735604716379,0.057615095449067996,0.07819876387694095,0.06852196842222447,0.12792993172137684,0.10359952399276035,0.13308225982670435,0.10176112600766435,0.10133772466100428,0.15474005552238887,0.23140542774013897,0.20143146380753119,0.2176484583696545,0.2571322375327687,0.2893160843181674,0.3065563606139794,0.301207981727912,0.3038316043992412,0.31442055995663676,0.3024008412000492,0.29068705272534917,0.3021922871242017,0.298696544811613,0.27254413461185106,0.30777532997855184,0.33559994479119115,0.33307498310864114,0.33838740973144465,0.35915670471453165,0.3877177464904346,0.38583779833746484,0.3993381882146192,0.41290667615050763,0.38830466095477606,0.3866303898584562,0.3849241652998566,0.3907901759360341,0.3965477761178702,0.4021558210880407,0.4381370027210385,0.43567308915748404,0.47877275470647135,0.5215377629861843,0.5944820321777762,0.6822681437175395,0.7237069775755592,0.8257180089200373,0.8736149039467312,0.8520461132161206,0.8373531773262569,0.7759686443191622,0.6830939690550407,0.4058147200120392,-0.017750578734682033,-0.3890148804874013,-0.5093894522434167,-0.46298243376533144,-0.31857066313243676,-0.08375535635142085,0.126912166986585,0.28294454731872065,0.43026833894803507,0.44669667491600407,0.46985000157333695,0.47687598009120685,0.49076865144682535,0.46574657865343366,0.5012135128918287,0.5055345055430549,0.5093353794033817,0.4973907005405046,0.46211394318789656,0.472330643052271,0.4440349284171383,0.4613305724516294,0.43256566676872255,0.41891509318202097,0.4051370222500505,0.41419480416924237,0.4002766698668476,0.4092662374081885,0.37242330083512265,0.3356274304984353,0.3447563346324078,0.33870567553672787,0.3327839401561532,0.31937355737904083,0.2984967470167212,0.28545704169808617,0.30319793641096715,0.26003967621787133,0.2706202709438315,0.27382296883398893,0.27730275861619924,0.22758162116207895,0.22400924768293853,0.23602945915651855,0.2254435016716465,0.23046598959659792,0.22053731649807054,0.0,0.0,0.0,0.0,0.0,0.4213862001858265,0.018529002296662253,-0.14750380134762126,-0.13023542811918498,-0.0825139954838287,-0.011987606530867525,0.012571835738559472,0.006449570415351536,-0.007427771426096485,-0.013775045801916599,0.010335051752719251,0.034340950433270075,0.004756663231913049,0.013283673446885361,0.02171870826764435,-0.01578302637739463,0.007762663700129464,0.0006636461665506399,0.024056846728371703,0.055023184504446855,0.047719093801372674,0.047998191921915734,0.025299309146629735,0.017834129349177767,0.025606935693305397,0.048621922172111226,0.048675880530643555,0.018131178775036855,0.04104739964411517,0.0257305738392976,0.05623998820651534,0.01031552018662261,0.010223320986111707,-0.0051654259903109526,0.025283689028245963,0.04808374388802773,0.032672054544857235,0.009617335277232627,0.032412501531401634,0.03992859802682052,0.03216814616183197,0.024416377377137297,0.03195836227270661,0.02423032031057632,0.07764867895841224,0.06995191862274526,0.0469901380055468,0.0698959957345437,0.10046300253200573,0.11576722932557246,0.08524278988519722,0.0776621320994523,0.07009981953086841,0.047271482273990036,0.06266549350833288,0.05514816741588542,0.00943423390721483,0.032501424634840494,0.01736668848523031,0.009875908691215714,0.017667607438813644,-0.005109926364222907,-0.004969579193412288,-0.012479755350685311,-0.012359657971903401,0.01067269538383064,0.018410277426200824,-0.01971253765591124,0.010926174285800746,0.018630929338513395,0.033969466441321185,0.06458506685064856,0.06463065807686699,0.07231484797443152,0.07999719218845999,0.06475397510448189,0.09535853923415755,0.057188987095087074,0.026659315479032962,0.034334506176775886,0.0572892237837983,0.011466322481657108,-0.01143816861270036,0.003857173859317835,-0.011421143387096391,0.0038580994028436662,-0.0037946156475690334,-0.011454277278795076,0.011445941099866087,0.003776496123364246,0.01902960983705882,0.026641482134410963,0.06482131134490089,0.034231975422460134,0.04185530896667091,0.04948533340642547,0.057123135107442796,0.07241100785144902,0.057142230748448285,0.03424135959480068,0.03427411931838636,0.06488169911226416,0.07257347805750126,0.011499965669343427,0.03448913450517964,0.01927652528629323,0.049916787040502716,0.034711011031489505,0.042430590635161435,0.05014928756027836,0.03494065136264689,0.019726709907681838,0.04271222604288969,0.019838586499437545,0.02751751614352354,0.004614453480274778,-0.0030249327753218195,-0.018328090564615616,-0.018373451404295756,-0.01080352501314534,-0.0032590756320637774,0.011903068518274254,0.02704347914403101,0.019239758750677082,-0.0038648060030151647,0.026504614084327083,0.01865266367448605,0.01843004207431183,-0.004727193099408076,0.017955836574669978,0.017708271433095845,-0.005467744382694399,0.017202938311446574,0.01694980096724472,0.04726551650452345,0.024096485925963047,0.023859425602822813,0.07712220236788624,0.053982012060646935,0.03849640050446846,0.030666640343236053,0.045776721424180586,0.02269593183458756,0.06076388247429697,0.030076425483258777,0.07582148351828706,0.07573590936046619,0.052743818694275475,0.05269331305267066,0.052659136665444084,0.037357225138497076,0.03735197983809412,0.060283250816350456,0.03737615293873844,0.022118777137266014,0.04507466293515303,0.02982687146429234,0.014580061123377439,0.022255831491395997,0.01464407050563466,-0.008258170962405404,-0.0006051862055300701,-0.0006064872597213597,-0.01590570929757442,-0.0006562459766742049,0.014575471661034177,0.00686452975964862,0.014417580327302417,-0.0009733073772629305,0.014181321928883822,-0.0012508066472397869,-0.0014216711077857077,-0.0016147693696688032,-0.0018305546056999868,-0.00971078142827375,-0.00997266601907447,-0.017898321406247777,-0.002920184158620996,0.004399370754117235,0.03462988452116839,0.011360508537439236,0.041575137272598296,0.010655417956214462,0.02558498037972693,0.009952484833299718,0.009609741164984795,0.01691832556168882,0.03188122100428747,0.05450132588202854,0.03893265012200845,0.01574347957143794,0.03078481509962535,0.007644301375691772,0.022738525998169428,0.030220760861293685,0.03773434806539032,0.022356659236282928,0.03757942575479862,0.02227244457835243,-0.0006386719633509809,-0.0005869680601561837,-0.0157785208121399,-0.0003633482879951892,0.015095481976318765,0.022959301490953186,0.038513730816672344,0.054119911189709845,0.09270461064834246,0.07785541367652382,0.055422718717944366,0.0941808994672493,0.06422622659595655,0.026690870937945966,0.05034813703863861,0.03585918945026448,0.03671403783785563,0.03762941898642726,0.04624625063882847,0.0625638075481387,0.03309094933746363,0.02659950029366091,0.012522206294074066,-0.03970831978145518,0.015093933717394353,0.031743466709697035,0.05609107471171819,0.057572846095645926,0.0438318629916664,0.022510919665735492,0.008894046067167968,0.018265159590680317,0.004776494419363568,-0.0010052581627454811,-0.03728652433815166,0.018196916906327604,0.0202619093100847,0.11410048964955337,0.2844340416954592,0.5389077432441028,0.831675166022856,1.1016042775350243,1.3486905256494781,1.4965093017869566,1.5374023474996397,1.2421017313556404,0.740480212517031,0.2388188880639688,-0.07952921185247433,-0.17639989318648008,-0.14352613894256822,-0.0649827192927301,-0.024830769425757973,0.030420935996027618,0.03964415859328649,0.025766511151415997,-0.003567501450328003,-0.025430593479896804,0.01367067907809353,-0.016162740078776345,0.014979489044605969,0.00012414178075632716,0.030975744474278,0.015843906624880506,0.023508634549712165,0.023410942391621233,0.03848191064900337,0.0228794091814729,-0.00046579097683975264,0.014301331339172618,0.05954565764603978,0.03593453984154164,-0.0030358710513428296,0.034337670531037916,0.033439417807877445,0.047765458848852395,0.0849629854705042,0.0456985828646388,0.03695769216034233,0.02817933882564829,0.01936818291082573,0.04109456294014712,0.03223126248487755,0.030989772598234298,0.014449784435727059,0.013181018102722748,0.03482875692764309,0.05647239896312189,0.039908258432659126,0.03862982530985221,0.060281660970959994,0.05137649490171976,0.042482758448981486,0.025961351863748865,0.032380237196604815,0.023534153107303828,0.0,0.0,0.0,0.0,0.0,N
0.6830939690550407,0.4058147200120392,-0.017750578734682033,-0.3890148804874013,-0.5093894522434167,-0.46298243376533144,-0.31857066313243676,-0.08375535635142085,0.126912166986585,0.28294454731872065,0.43026833894803507,0.44669667491600407,0.46985000157333695,0.47687598009120685,0.49076865144682535,0.46574657865343366,0.5012135128918287,0.5055345055430549,0.5093353794033817,0.4973907005405046,0.46211394318789656,0.472330643052271,0.4440349284171383,0.4613305724516294,0.43256566676872255,0.41891509318202097,0.4051370222500505,0.41419480416924237,0.4002766698668476,0.4092662374081885,0.37242330083512265,0.3356274304984353,0.3447563346324078,0.33870567553672787,0.3327839401561532,0.31937355737904083,0.2984967470167212,0.28545704169808617,0.30319793641096715,0.26003967621787133,0.2706202709438315,0.27382296883398893,0.27730275861619924,0.22758162116207895,0.22400924768293853,0.23602945915651855,0.2254435016716465,0.23046598959659792,0.22053731649807054,0.1727381784554885,0.1711285366591341,0.15457984659758472,0.13837725654347785,0.13780514187021797,0.1452228215369037,0.1300645609489013,0.14581990266688732,0.13899737113129268,0.14016076495245286,0.11874154901245264,0.13586794550164438,0.06927266667845086,0.04885575526982115,0.07461217531390686,0.08540500782868851,0.07358714466999039,0.08500123456731812,0.05850919051701289,0.05523577799203293,0.08281528602066324,0.08775008871090399,0.07767378483572016,0.0755024441029817,0.08886883816628569,0.10248099663898547,0.06283923057687185,0.023423706428193688,0.007148457074349195,0.03692739827820446,0.028694042262899174,0.06649372315341735,0.012769441166975669,0.0050562383884520095,-0.010147278011340806,-0.009927977716038691,0.013345323896784727,0.00617311586604395,-0.0008881762265480607,0.015076387492467966,0.0005672828465492542,0.024348187760005285,0.009995135309918515,0.01863022400057104,0.050243863619173545,0.03605327721774754,0.04482162379713483,0.03833151429435012,0.00893115490898662,-0.02810707528891091,-0.026945022514374813,-0.03343932092237727,-0.0017465867786593161,-0.0006420822535897082,-0.007203445479700957,0.0014917464082885217,-0.02040649298108833,-0.004126334857915266,0.004484165544441825,0.005426074050474685,0.029266253434544764,-0.0004088284567977399,-0.014825208097457031,0.04714966203469174,0.0097646377336376,0.018209442437382407,0.018995924851206065,0.042691845902594214,0.05109177795533902,0.04419735412737493,0.01436849723507225,0.05330382206279728,0.0845898650135943,0.024171441128722913,0.017236587780348322,0.033219760101919904,0.0262724173585994,0.026960401143491578,0.027642147474242647,0.028317412409167447,0.036627268638517785,0.014363918209437257,0.022658292987492924,0.00037797553587105354,0.016295167451757065,0.024560245802343332,0.04809659976305417,0.04105440212401568,0.0034323142484012784,-0.011281023873905763,-0.018370082998662617,-0.0025524428136610086,0.013248787937820432,0.021393652679919096,0.044807947963530104,0.03764426978721594,-9.628083415459322e-05,0.023284667005030665,-0.006833787395144521,0.01652952927962494,0.03224443301461083,0.01738793136081031,0.025451419073799043,0.010587291014729227,-0.02720345615629618,-0.011505330288885715,-0.011087896915125859,0.035185103764738435,0.03562188804718202,0.03607668347129935,0.036554810410698496,0.03706140885557017,0.05288434570740172,0.03817966381924136,0.054083509419849754,0.016544195828855687,0.06311195638589719,0.06388602221603062,0.04179440573801757,0.042689164468531576,0.04364905336814828,0.03703552363696969,0.030492717915179667,-0.014184135390702235,0.017629136515741082,0.01895586348623253,0.01272401955227651,0.014220029123385625,-0.007118476067071435,-0.005439386959128071,0.011619897863688217,0.013498132031587973,-0.015083079239358907,-0.005346194954324721,0.019790300661953652,0.03740843127326004,0.024590121591874906,-0.03394143586940332,0.007007380147777333,0.002258131316550808,0.005310170182683662,0.008531199259890928,0.004288894511036705,0.030799618299034874,0.0040164340595370395,0.03092862229696214,0.06569634658007169,0.031913796463818256,0.06713556861630349,0.04910663548571848,0.061890914594618957,0.1054960746629652,0.11115638137207526,0.09416157619231169,0.07744229965480463,0.05336290211210568,0.0907018951320117,0.11304988145699608,0.12041155874680004,0.13571542393978056,0.16660646223115214,0.19780461571098643,0.22931190312239247,0.22292207997202906,0.224483758476457,0.28748589108451167,0.25909702707402843,0.2997839268430358,0.3178440454961731,0.30562934248786344,0.2936974622656741,0.29732161144511104,0.27064188941297423,0.2824187315881213,0.27150648785449893,0.2913799186425112,0.3114564235807046,0.3393592196114043,0.2986539631253997,0.31922389446958976,0.3551972993395473,0.36834232215404755,0.38919842492943785,0.40245449891440827,0.3851560345228504,0.39840251316557845,0.39631112267579294,0.3635628782448257,0.36125136193513874,0.4199025186241053,0.41721139007880176,0.4295487444632447,0.4568687154577563,0.5220476535269596,0.5715450763651562,0.6893640785965186,0.776109980895653,0.8928552088129336,0.9707635750233661,0.9486358827685865,0.9715873622245633,0.886711761523551,0.7015685225571544,0.27852501164735777,-0.2067552641768188,-0.418139638815252,-0.5008874595062061,-0.4091819791553982,-0.2117806890000083,-0.007968027359893288,0.2023305995653117,0.38098326832519924,0.4592912244456662,0.46025126664836014,0.47563099078287546,0.513139688173055,0.5117111784037186,0.47904980894531424,0.49163046229646673,0.48073798369594345,0.4846351280276411,0.480450607744143,0.46059362180774055,0.4403953314557096,0.41226023042919374,0.42208079439140006,0.39348416022159344,0.3647171770351818,0.36638327168409723,0.3832353183783402,0.37709999488352974,0.3480093370020649,0.3189178595643932,0.3127783373542775,0.2990517666674619,0.2854048541213758,0.28714426591728925,0.22787778312010953,0.2680968511963194,0.27027503735918545,0.24971366519120586,0.26756143595573795,0.24741961517967448,0.23515140806551832,0.25369441818967303,0.2342876152594098,0.0,0.0,0.0,0.0,0.0,0.2388188880639688,-0.07952921185247433,-0.17639989318648008,-0.14352613894256822,-0.0649827192927301,-0.024830769425757973,0.030420935996027618,0.03964415859328649,0.025766511151415997,-0.003567501450328003,-0.025430593479896804,0.01367067907809353,-0.016162740078776345,0.014979489044605969,0.00012414178075632716,0.030975744474278,0.015843906624880506,0.023508634549712165,0.023410942391621233,0.03848191064900337,0.0228794091814729,-0.00046579097683975264,0.014301331339172618,0.05954565764603978,0.03593453984154164,-0.0030358710513428296,0.034337670531037916,0.033439417807877445,0.047765458848852395,0.0849629854705042,0.0456985828646388,0.03695769216034233,0.02817933882564829,0.01936818291082573,0.04109456294014712,0.03223126248487755,0.030989772598234298,0.014449784435727059,0.013181018102722748,0.03482875692764309,0.05647239896312189,0.039908258432659126,0.03862982530985221,0.060281660970959994,0.05137649490171976,0.042482758448981486,0.025961351863748865,0.032380237196604815,0.023534153107303828,-0.008216504274888745,0.021186001620619524,0.020046726550817098,0.03421680751082276,0.06369855220607609,0.04736245851658449,0.031059073627034733,-0.0004929308315737891,0.029122419588482273,0.012926229939170718,-0.0032314434861513584,0.00357502644670012,0.018064299645668903,0.0020306536155426914,0.05481446270774965,0.02358808131219575,0.022974509240075387,0.014767531508689377,0.014251002161512438,0.04435015624703583,0.05921706397467101,0.0741352125444425,0.08146342854303194,0.08120162272373274,0.08099075336536976,0.10375428242400293,0.08071780878983276,0.057728235221763305,0.0882735157323287,0.05772930915405093,0.0272242943333836,0.03496249694221079,0.050374712946875795,0.03525010865856317,0.020150692098960896,0.0203553853538654,0.020577190384914717,0.00552900737682024,-0.00951054700096127,-0.009262883724010131,0.013910034891384612,-0.001125967081181538,-0.016166222163520264,-0.0006474107532448495,-0.008060680726280661,0.015083249342910252,1.1149161745628162e-05,0.015495900189534402,0.0004056515043755655,0.015871752187657028,0.03132809118041637,0.008567023222255903,0.0545683884231349,0.05470979362034013,0.05483912450537705,0.001465080266016012,0.016849547275914988,0.016935123831122483,0.009361782092043186,0.017052319228811202,0.009439301703928978,-0.013478969910999412,-0.00585551318483252,-0.013539523296379858,0.0016763641187197186,0.0015862512527974252,0.0014744158150842887,0.02426658242622935,0.0317568295934075,0.062153662917624704,0.016119242047600832,0.031200515986645447,0.015700707861626924,0.0001861622796234251,0.03814750987219695,0.014963373801261478,0.022331467243389063,0.01440324139014418,0.021744584202498314,0.05199694709719203,0.02874566949862755,0.02840492769995785,0.005125476783199048,0.02767975244584382,-0.018554751466184002,0.01160878514520569,0.018832390113912665,0.010758401027351686,0.01031197099633551,0.0022109251262997136,-0.013544053351826457,-0.00638647289104207,0.0007612608420020278,0.007901713423602906,0.015037446623753833,0.02981243754655488,0.014021859052826926,-0.009407626317402799,0.013016393237295261,0.050731219973432884,0.02732536200950973,0.003933260976063876,0.011123402506125599,0.041256978353048195,0.033204940754451996,0.009894038932483076,0.024816675455280757,0.03212629046602266,0.008900564552532682,0.016273020940599615,0.038962589926445815,0.031122301070491357,0.0538853569176475,0.061404436603878905,0.06132213373708597,0.05363928006031159,0.06892222007662717,0.05368102682328578,0.046122886838532204,0.0538888988847795,0.07697847626733212,0.0542591241056048,0.06978560463744389,0.05478331195158769,0.01689183963549491,0.017240691258784458,0.04054473750513341,0.04859439832673954,0.049028620008158864,0.04184465101928123,0.019398039844221938,0.01989285479988665,-0.02544730058445891,0.005637448823036256,-0.00911715931780151,-0.0009390444675301284,0.007247281931335085,0.007800307330852442,0.00836139263201916,0.03185476941964419,-0.005775740325867768,0.002449897168899504,0.010683167519206251,0.03420718283222137,0.019531908215206888,-0.010418313833746109,0.005488035737283987,0.013761643079917639,0.014403350804316678,-0.00022752213024677118,0.00807700027479126,-0.0065310876368203106,0.017080535891107546,0.04070590011332289,0.03378040372456823,0.01158797094613151,0.03526108615332805,-0.0021798307572179513,-0.0013952554421049776,-0.015874553327497026,0.038439229877847585,0.09277545969424941,0.10128767397390273,0.11746785964646975,0.1260344036191733,0.11934656030261179,0.12032877330606317,0.12133907013530627,0.10709342180957875,0.09287301202346473,0.07867557931909071,0.0721398527161971,0.06562125817127877,0.05147486094156687,0.0526212175486987,0.015566078713263484,0.009078209532552348,-0.005054070523978488,-0.019193758321874362,0.01250390362339089,0.021263673563268595,0.007083340813761134,-0.030039411627497417,-0.006050932910159624,-0.012648179821282912,0.03422592707221198,0.03523475255630316,-0.03254396128592329,-0.02392064200630846,-0.07643645465932282,-0.05253791750216816,0.009582251289635555,0.14050941822680088,0.36318744706610884,0.7082009538599237,1.106793825768607,1.4137918605210076,1.6521273284156808,1.8370839759492046,1.7164863694879129,1.236827715887792,0.6273264687519331,0.09427053301682395,-0.1331309584853685,-0.15425190251013984,-0.06081209352925591,-0.005648310825137383,0.04944481453553931,0.03569282027818553,0.014225729229603523,0.007966111539122083,0.009270646856726338,-0.004786934683505364,-0.003642765402008294,-0.010222706759143158,0.01367936458883812,-0.015992734339963958,9.966129991309789e-05,-0.00681527087514217,-0.006170440792280915,0.009677524544056071,0.0483725843213036,0.025861191227181224,0.04148447231067067,0.05703723814665963,0.04959700157302219,0.026806809612139507,0.026875280672081718,-0.011328013827895988,-0.011387449676803616,0.011416215385570274,0.018878940899133865,0.018645358378764514,0.0030770952592858976,0.01038441480477599,-0.005278438375581729,0.017223096202763345,0.016760802993217624,0.031545293288472435,0.008089636465111804,0.030452931341390217,0.04514804911924156,0.06746080232001186,0.05154513898340634,0.07381794732790811,0.03494239646479471,0.0,0.0,0.0,0.0,0.0,N
0.886711761523551,0.7015685225571544,0.27852501164735777,-0.2067552641768188,-0.418139638815252,-0.5008874595062061,-0.4091819791553982,-0.2117806890000083,-0.007968027359893288,0.2023305995653117,0.38098326832519924,0.4592912244456662,0.46025126664836014,0.47563099078287546,0.513139688173055,0.5117111784037186,0.47904980894531424,0.49163046229646673,0.48073798369594345,0.4846351280276411,0.480450607744143,0.46059362180774055,0.4403953314557096,0.41226023042919374,0.42208079439140006,0.39348416022159344,0.3647171770351818,0.36638327168409723,0.3832353183783402,0.37709999488352974,0.3480093370020649,0.3189178595643932,0.3127783373542775,0.2990517666674619,0.2854048541213758,0.28714426591728925,0.22787778312010953,0.2680968511963194,0.27027503735918545,0.24971366519120586,0.26756143595573795,0.24741961517967448,0.23515140806551832,0.25369441818967303,0.2342876152594098,0.21514906830734984,0.20392985555734028,0.20063852464521273,0.17471678418682307,0.19494425256017048,0.16198766802049727,0.12934189095527002,0.15050097181361502,0.1566950368524141,0.1479265534077592,0.1318386601832323,0.12371521109232264,0.15412231054056738,0.12372071203198413,0.10892385984054809,0.10208857636725639,0.09557113939380701,0.08936877110169028,0.08347821581669951,0.0778957710207725,0.09554168133279096,0.08292125346603793,0.07059531969480767,0.027992658945732288,0.03916351980896076,0.012404549529837189,0.0011998415469193172,0.013184698219971088,0.04071150622420004,0.04556676694062511,0.05066841693412898,0.04072689072238788,0.03865964369436505,0.029176653391198275,0.02755352342650417,0.01849989215993506,0.0020081698688749123,0.0009950388592698657,-0.007471557659829354,0.022449412129502716,-0.0009464973249690497,-0.016534746969053327,0.013884927640664048,0.05209981332181577,0.02933130809669879,0.02198819149935629,0.022423093137873114,0.015347077836702418,0.023678372518203365,0.01684494347062543,0.0024819128037272646,0.01114868293057363,0.027555914798619262,0.028772758769229828,0.03771695648024311,0.023815921806982554,0.009987063938709703,0.0038647632997283075,0.005441895536348055,0.014711316971062123,0.03930731155956035,0.01044954127420413,0.027469478089632904,0.029227990036618245,-0.007206917988086982,-0.005428474272913415,0.019273319438824883,0.005760248052823639,0.007515822748296729,-0.006032477366200146,0.010957337665518516,-0.010293991755127352,0.014263316840080972,0.0005680173097431222,-0.051385204534707525,0.01122743113156293,0.012652027492821917,0.029302641404434934,0.007688534136165929,0.00894064308468715,-0.005149045750766481,-0.011656952332780616,-0.010583371992617696,0.013355417034280241,0.06016123224746172,0.015214001729274736,0.02370281740683414,0.03213886922771287,0.03288195768144288,-0.00463264196481311,-0.04219672526961157,0.019529991050872535,0.012440879475762417,0.020597224642479785,0.005796971501259239,0.04445978465632751,0.029610383502869174,0.03002672651865566,0.03043062086012299,0.03082663323542324,0.023577723356929852,0.031612516174547474,0.024369334850843388,0.04005943806987327,0.025196504556926163,0.04855729022289053,0.026089328142644808,0.0647762796714752,0.027075120752447713,0.03525196809815815,-0.025312297077306485,-0.024710414854120323,0.029421092187626435,0.03775059084516253,0.03849248797839414,0.031653727480901395,0.0019581510984758126,0.010543990735015038,0.05741782976226641,-0.00260144317878923,0.036811696226700524,-0.015372632388376434,-0.006319025529267315,-0.012434264581373092,-0.0031441628252284596,0.044485192871092906,0.03876619169487031,0.017915732732882793,0.03543343092629959,0.03783844384018532,0.048064300299193424,0.05083706572238636,0.04616547489267377,0.05698237293565972,0.029805825722830113,0.04105834653927033,0.014333202787449897,0.06425982764496455,0.045658117972467833,0.05787420429705447,0.06270780168709084,0.060165610053293565,0.08081983513806826,0.07882783342902672,0.08476110574134861,0.09862493938034914,0.11278274300314037,0.08903161277144002,0.09614844873069171,0.12649515734153158,0.12658443526630578,0.14990871448901483,0.23467688438613396,0.2586265330944046,0.25996462706230744,0.299821204133681,0.2788544506330669,0.2811159700031705,0.30659996814502605,0.32473342600912014,0.3507905206021451,0.3083463471515706,0.32729352768447106,0.3159209520586287,0.32006206083232575,0.316775621375015,0.3442504394872399,0.34897627897934413,0.3844215502069152,0.3359409121053097,0.3563380209957353,0.3462468436865855,0.3591286621496357,0.3720284786956993,0.3543480451496045,0.3595432564632036,0.3570122325787055,0.3772829344634311,0.4279571734955155,0.42493741652632894,0.406387268104164,0.463958391988951,0.5059055037800949,0.5474613670824815,0.5656489417601063,0.6521102730102435,0.6998067518759261,0.785091425073006,0.8238432885874138,0.7930690516893498,0.8073174916007098,0.7366068652325509,0.5120830316498677,0.09545398625402567,-0.28412391647516644,-0.46626789291189985,-0.44339726451178774,-0.32250887992073135,-0.19527455535915397,0.06826672173366925,0.27715341160890056,0.3703283655095564,0.408996326394385,0.40087000168158604,0.3918673280210995,0.35148968928611296,0.3638583326532889,0.3831880155253795,0.3789745856988224,0.3742021589286976,0.3994944109398314,0.46254878191823207,0.44115598225238933,0.47291387423781167,0.5043817433232366,0.5203237846014027,0.49786021641365696,0.46759883938114377,0.4448620551385765,0.4144041079557745,0.39918429200565236,0.34574528101384167,0.3228910302673031,0.3077263082145001,0.31556154306211653,0.277649621115877,0.2704294928846038,0.255716897988898,0.24117495295794228,0.2650313151071267,0.2814564326076587,0.2599023381595187,0.2615171152926163,0.26339154475575216,0.23497364486947603,0.22976612026603174,0.20957304259734652,0.2049704282688154,0.1930430619218998,0.1890819775592916,0.2236601536537216,0.17452052641454568,0.17157292355860518,0.15368992913325044,0.15908218227598062,0.17246936977592855,0.14800456364061837,0.1468203413281662,0.13835108216177788,0.09203043136295233,0.0,0.0,0.0,0.0,0.0,0.6273264687519331,0.09427053301682395,-0.1331309584853685,-0.15425190251013984,-0.06081209352925591,-0.005648310825137383,0.04944481453553931,0.03569282027818553,0.014225729229603523,0.007966111539122083,0.009270646856726338,-0.004786934683505364,-0.003642765402008294,-0.010222706759143158,0.01367936458883812,-0.015992734339963958,9.966129991309789e-05,-0.00681527087514217,-0.006170440792280915,0.009677524544056071,0.0483725843213036,0.025861191227181224,0.04148447231067067,0.05703723814665963,0.04959700157302219,0.026806809612139507,0.026875280672081718,-0.011328013827895988,-0.011387449676803616,0.011416215385570274,0.018878940899133865,0.018645358378764514,0.0030770952592858976,0.01038441480477599,-0.005278438375581729,0.017223096202763345,0.016760802993217624,0.031545293288472435,0.008089636465111804,0.030452931341390217,0.04514804911924156,0.06746080232001186,0.05154513898340634,0.07381794732790811,0.03494239646479471,0.041900567167814165,0.06412817833059307,0.07870219418659662,0.05505780348572336,0.061968714421667404,0.08415235662968731,0.09868439505879495,0.10556443842424161,0.05130141812058279,0.027591379730994466,0.02679119937679542,0.0412576152224059,0.04806432179090027,0.009001897631927741,-0.03772477059972808,-0.008062112202725537,-0.008989343689375474,-0.009938728503190528,-0.0032660406280555537,0.011032435288678324,0.040602179716194446,0.039598434062778694,0.03859078515256202,0.060507166974830225,0.07478513666622282,0.08906922304091587,0.1186450358300766,0.09474173614933874,0.07085116937194667,0.03933306842106889,0.030754086177399373,0.06803922401361542,0.08241587141987092,0.07388417127426833,0.05772676406090203,0.03394301115766109,0.002531985308613953,0.009341318598819379,0.00852117234131727,0.02299475472662352,0.06804377649671772,0.036686555937015794,0.03590180670893294,0.01983896218761702,0.011420369823251161,-0.004638996342163871,-0.013058399997779673,-0.02148102865611914,-0.006983009911008299,-0.00012861455727082455,0.022008733894931687,0.02886544025509992,0.020443618659762797,0.0273110582889449,0.034186717048530844,0.041072325974462635,0.032686535483748086,0.047237974530485075,0.02359619568132733,0.053459612166543144,0.03749014816856299,0.036820012267918076,0.02852522232498047,0.08137907021215311,0.03491105989549629,0.04194993699536772,0.0413635369819437,0.05607548884513349,0.04787757601576633,0.0396929402886225,0.02387866469990444,0.030998908034484865,0.030486070942517755,0.007055308764965448,-0.0087296465315188,-0.0015880079421742416,0.005554566640808659,0.02033838955669164,-0.03365225789751493,0.019334813691505824,0.034113887309247706,0.025969700963297725,0.01782827693448026,0.03261550765511476,0.07033283188811232,0.0316426123640794,0.02352614090166973,0.01541836393833681,0.04552720386489866,0.07564595755360962,0.03700187487000771,0.04421674367402744,0.028517250592044154,-0.002455590406541294,0.02771218564548825,-0.0032430489130943533,0.011658584975786875,0.06477545181974001,0.0414854900360074,0.033485594916779875,0.0484164510573798,0.03278693688376017,0.001878782323687222,0.009180827583614484,-0.006439919164032092,-0.014419037538872597,0.0005255949464447461,0.00018728668911756653,0.015132437042437911,0.022437260524543683,-0.0008221040086125771,0.029410737910060304,0.03672170715137304,0.0211111259591902,-0.0021379573458105783,0.028106129057464072,0.020146163242568373,0.019830969920549713,0.027160544015593015,0.04213478129703336,-0.019302561537932545,-0.004322838343109575,-0.004622124194535909,0.0027257391415082695,0.03300589415786714,0.04037183097729395,0.009542694063768897,0.03221779381955751,0.0014185670239217783,0.001202660434013569,0.008647345916708914,0.008471344168255433,0.015959152018868928,0.054036678784718004,0.06921520555946752,0.05385447230943438,0.03087969229560496,0.06142308371997554,0.06142906837526862,0.030897764208205628,0.053884985289583666,0.03105147497719457,0.023528258900064714,0.01603165900310219,0.03148515380329175,0.0011146835472302362,-0.006307781776116152,-0.021349190705965748,0.009480110727150002,-0.028440201873019252,-0.005203945337698444,0.04098575878222958,0.0490019187826664,0.1029049800415325,0.10336022670296964,0.10386152523970664,0.11205349626729243,0.10501442172295218,0.08274638780445272,0.0681753201654752,0.030736546829040833,0.05448687758168513,0.10121969104441984,0.09452081919049644,0.07259741053482663,0.07365614098822558,0.03656441051968882,0.022452528300296364,0.02367752709500634,0.03259632740613522,0.010999911977665908,0.020018013526710992,0.03672430650140508,0.030550910417140458,0.0014955805384741319,0.010687558116805829,0.027558618813539708,-0.01666678936108273,-0.03793525933642657,-0.05153071365163436,-0.04216765162551426,0.036010142211620216,0.17537270535763988,0.36064844041703004,0.6988281506135386,1.1135059197045267,1.4824236082505557,1.7826564222373558,1.975989245847266,1.8102373143856325,1.2318838091211048,0.5923999667975018,0.06749740335808661,-0.1671152272537124,-0.13440743449101664,-0.07129358745523955,-0.031280370317334175,-0.029660420144072826,-0.043516128153675865,-0.011719793611078172,-0.04125158828787534,-0.025129834980387705,-0.0015565795948611957,-0.0010900258605440994,-0.008439500575576851,0.02989304722772849,0.02221882825880246,0.006753636087303126,0.036996062874095056,0.021257025001050072,0.005393441037863082,0.01233775874108047,0.011532215001323187,0.03355062376181252,0.0019863735072538757,0.05439342056411535,0.053233336990720706,0.04436233910247495,0.06599492220542344,0.04936499199647471,0.06325231136606423,0.07709748342490068,0.06798224986481052,0.08176106047427162,0.0420247476477227,0.009909922142438889,0.03127007490660797,0.03733682469869188,0.020473272668172424,0.026532517179127954,0.032594460645204056,0.0615876018735064,0.0371013637440707,0.012629593524387424,-0.011824230923592248,0.017233489012835453,0.038675652608196665,0.04486525686829313,0.05108946994868654,0.026786506622607814,0.040733239170705024,0.04708458330097731,0.053485434953948405,0.044656090119202484,0.012958032201823427,0.01952561491051336,0.03379566905172055,0.040487837489167317,0.047245958636253964,0.046430758781844196,0.0,0.0,0.0,0.0,0.0,N
0.8073174916007098,0.7366068652325509,0.5120830316498677,0.09545398625402567,-0.28412391647516644,-0.46626789291189985,-0.44339726451178774,-0.32250887992073135,-0.19527455535915397,0.06826672173366925,0.27715341160890056,0.3703283655095564,0.408996326394385,0.40087000168158604,0.3918673280210995,0.35148968928611296,0.3638583326532889,0.3831880155253795,0.3789745856988224,0.3742021589286976,0.3994944109398314,0.46254878191823207,0.44115598225238933,0.47291387423781167,0.5043817433232366,0.5203237846014027,0.49786021641365696,0.46759883938114377,0.4448620551385765,0.4144041079557745,0.39918429200565236,0.34574528101384167,0.3228910302673031,0.3077263082145001,0.31556154306211653,0.277649621115877,0.2704294928846038,0.255716897988898,0.24117495295794228,0.2650313151071267,0.2814564326076587,0.2599023381595187,0.2615171152926163,0.26339154475575216,0.23497364486947603,0.22976612026603174,0.20957304259734652,0.2049704282688154,0.1930430619218998,0.1890819775592916,0.2236601536537216,0.17452052641454568,0.17157292355860518,0.15368992913325044,0.15908218227598062,0.17246936977592855,0.14800456364061837,0.1468203413281662,0.13835108216177788,0.09203043136295233,0.10719607472324184,0.12271468618588038,0.06981094887105392,0.07838675823505077,0.04910001539918404,0.05072023608981155,0.08324359694914493,0.10081729196216921,0.0728710085812333,0.08345575281234169,0.1020003436663406,0.11321609256066095,0.10945525575368954,0.07542806858067604,0.09518313205535811,0.09993957319764324,0.10497204638119659,0.10263034175379426,0.11582954397367778,0.09871113096331076,0.0818305499241804,0.06517693513142164,0.05638046655009425,0.04014663373255948,0.008822099171520109,0.023526418210579336,0.04604018912807795,-6.338164310589573e-05,0.022749417723841994,0.030410114639435784,-0.022942603019527167,-0.015058192887986899,-0.03000321380580442,-0.021938061759051983,-0.021434830855233258,0.002068107655409854,0.01036132524749779,0.01108411211115877,0.0271586163152435,-0.017831982446724452,0.006014640477904487,0.029924677870579054,0.030973021495591762,0.024441687707217566,0.002688173466600881,0.057408766481214214,0.0816219151081295,0.03711887424465542,0.023236677846663625,0.04761471616356224,0.0567606245199753,0.04303052922299219,0.06755336636064893,0.06155312454287137,0.07851673209554322,0.07259189662415888,0.11254775579066768,0.07611671323067681,0.06263280027857097,0.08737366441575069,0.035711907634151115,0.029904795180290367,0.031738862044986896,0.033566313065780694,0.020097739543227175,0.014250839159688215,-0.022188429632566887,0.010112007532673791,0.019449961855578363,0.005820652088369558,0.022709383632181335,-0.006303299540576881,0.03339940406244512,0.011908339781474485,0.005633466711925675,0.014570135980770673,-0.007135058508398255,0.016927681780120964,0.017981191201775912,-0.01926159662767423,-0.04131474441435707,0.00530951498727941,-0.009292042600677963,-0.00870338715150967,-0.015846518849215778,0.007489027685377913,0.015459219981318353,-0.007214192506788505,0.008246465648981306,0.008356277742050259,0.023686289102930462,0.01603440969667611,0.008330069798290731,0.008219709825380627,0.023349728545203115,0.023159209413094586,0.02293584819179485,0.022684315162647937,0.0376920756131056,0.014473387824974574,0.021805599102473223,0.029127071428114156,0.005876057756414448,-0.009736241009396756,0.005218436968272179,-0.025669634484857845,-0.010698201096414915,0.004291242853110519,0.042231312996401385,0.003791326027136634,0.018884032762660933,-0.011821480216541894,-0.004261304525967283,0.03393213314741763,0.026353717356506465,-0.004062924051706258,-0.0038184756281153735,-0.011110694057923086,-0.0030053345297520557,0.020508538755687488,0.005951963205745149,0.014467696325192111,0.03842537227491429,0.03198727866394421,0.048654423929219634,0.08843747267256451,0.12842248169566003,0.08456342687142918,0.07149146786991975,0.06629115437590673,0.06132958830217445,0.04897354010573541,0.04451383812368361,0.0555996109827382,0.04403103568438151,0.06330546934413327,0.03701531659687071,0.0568646720889602,0.06172834853669797,0.03632960338906594,0.04944738872272131,0.08580447169688632,0.11484046254849083,0.1059945424921063,0.10511986696673488,0.11986178722529454,0.1349407643933452,0.15035956997285946,0.21961048466070823,0.2586388501877743,0.2598034586592607,0.3071592670982116,0.2937235624435192,0.2959070120619246,0.32134572111828735,0.33946704102903486,0.3579039906953607,0.3002318884138352,0.2810606340279342,0.2850938938962273,0.2893924742314397,0.30922302999019874,0.33692640463873746,0.3266346213147673,0.3623827508494403,0.3448093146766173,0.39615321275396104,0.37884215634163254,0.42275279542733146,0.405591875979722,0.38081749158500106,0.40188570786998584,0.3464972249925252,0.352160198332857,0.3653446797182347,0.40893350860166405,0.43703460412868267,0.5030927537320519,0.5230043725033734,0.5425680923959447,0.6457872045545724,0.6797771871606957,0.7667426637960082,0.8684143074601062,0.8930287735405463,0.8787231076788116,0.8254226161591456,0.7712554858636252,0.5633094054943877,0.224421668857651,-0.2225732467873949,-0.4186179732122324,-0.48604565281838313,-0.39432056244642755,-0.20455826271201855,-0.02368558283342393,0.23242645207290608,0.3804581475272879,0.48925665672603164,0.5436112273052913,0.45953556703386816,0.4357744948033784,0.4265439768620229,0.4395479844842495,0.45956399169659834,0.41023563604429264,0.46737226706085055,0.46291571518126384,0.46569057410209397,0.44518020998655977,0.4396387541290789,0.380337744125578,0.3972243452877458,0.41392454048634286,0.39991105552644907,0.3857861853318368,0.35630149621495444,0.34969680945604426,0.3277956164011237,0.3211927534962321,0.3069912343106062,0.30049974066308704,0.2864596000456466,0.2801764568222509,0.23582288431747095,0.24511624214173175,0.24694361393754966,0.21839813197960184,0.21298624225123955,0.22308166000375906,0.279264309770617,0.25164244898080856,0.23956658402201084,0.19719832105884316,0.2009613459057943,0.0,0.0,0.0,0.0,0.0,1.2318838091211048,0.5923999667975018,0.06749740335808661,-0.1671152272537124,-0.13440743449101664,-0.07129358745523955,-0.031280370317334175,-0.029660420144072826,-0.043516128153675865,-0.011719793611078172,-0.04125158828787534,-0.025129834980387705,-0.0015565795948611957,-0.0010900258605440994,-0.008439500575576851,0.02989304722772849,0.02221882825880246,0.006753636087303126,0.036996062874095056,0.021257025001050072,0.005393441037863082,0.01233775874108047,0.011532215001323187,0.03355062376181252,0.0019863735072538757,0.05439342056411535,0.053233336990720706,0.04436233910247495,0.06599492220542344,0.04936499199647471,0.06325231136606423,0.07709748342490068,0.06798224986481052,0.08176106047427162,0.0420247476477227,0.009909922142438889,0.03127007490660797,0.03733682469869188,0.020473272668172424,0.026532517179127954,0.032594460645204056,0.0615876018735064,0.0371013637440707,0.012629593524387424,-0.011824230923592248,0.017233489012835453,0.038675652608196665,0.04486525686829313,0.05108946994868654,0.026786506622607814,0.040733239170705024,0.04708458330097731,0.053485434953948405,0.044656090119202484,0.012958032201823427,0.01952561491051336,0.03379566905172055,0.040487837489167317,0.047245958636253964,0.046430758781844196,0.053327092513031416,0.02208794352172,0.006204941819118089,0.03624524244869311,0.005229782261064782,0.08127169121691692,0.09626006005035045,0.1113272184172401,0.0959075565610683,0.08820800167329436,0.08058627235154851,0.08068255583880124,0.1114195461320098,0.11930498538860863,0.08905333288167366,0.06651009010074825,0.09752031326871169,0.05217526467648142,0.07565809334968518,0.05334222278669953,0.06163706926229261,0.062329959700003566,0.05541518705139665,0.033245277775562805,0.011096845783680807,0.02717070328856345,-0.0025956704639953747,-0.02471874491358002,-0.0315634719671264,-0.00020954556545532829,0.0005688807683579206,0.008978041215507774,0.0020925283713894554,-0.02773020037345912,0.03413057939164775,0.004281487582131815,0.012628622010166204,0.01332459769897593,0.014012150427395856,-0.0005904151767510542,0.015366774195000509,0.023677644671140596,0.039626229445008244,0.03264771426567288,0.025667270649776995,0.018685542347367606,0.011703044772139005,0.020003109595422133,0.02830319060262688,0.051886460934312185,0.03726285863101453,0.053205339783755225,0.046223396686472344,0.03159934919047421,0.024615286030085462,0.03291168310021019,0.05648743837664761,0.04949255622073566,0.034849852140689225,0.027840439339267404,0.02082089224194588,0.036713465442700335,0.01438430616162726,0.01496265553428543,-0.022685594708086978,0.008417378891305909,0.0394980935392478,0.02470738888365055,0.03281772972207369,0.010338179832342372,0.003116551858399342,-0.027055396516129655,0.0038773542924110034,0.011860387591510766,0.03510254478467661,-0.01045066950931227,0.04331408362385298,0.043570032519761895,0.01324365032509594,0.028751376235094207,0.0595292154293034,0.059730119645039687,0.02935547202958822,0.00661363129300769,0.029712809367996317,0.006956452793631453,0.030042775769128283,0.02255795117260168,0.007426914623054355,0.015215943792407038,0.007718185633938157,0.023141259447949772,0.007995287831723463,0.015770645473684106,0.03882602834442209,0.054237143875951854,0.05436241505549509,0.02391853884187916,0.024036488808599498,0.04707402535238809,0.062464424159509147,0.03964072554610004,0.024450205932920546,0.03217412416640533,0.039886342628587285,0.032302017673552515,0.0323433804370458,0.03236668117402597,0.0018036438945260456,0.009424743729939282,-0.021187195217372497,-0.013620299115280135,0.024483315382473548,0.047275551337190136,0.031832553921616755,-0.006562493855884393,0.03907088996237093,0.01590434612005577,0.01563587497197223,0.022983029553750946,0.03030473956432212,0.03760127463014216,0.029589843168620567,0.021553284961491594,-0.0017915275294242193,-0.01752055539535971,0.012573320152916814,0.004435604874610441,0.026840838515812107,-0.011907013051573195,0.002815162592374273,0.009878147652304369,0.009284348998448573,0.0010361241103001078,-0.007222761111718316,-0.007848545947804559,0.014444671326823798,0.029094808992768485,0.028464077635297336,0.050763271421679156,0.027222674401353328,0.018977049132866214,0.041312293005345606,0.04074111493860397,0.017266201189709313,0.03202167305154939,0.054444107373913274,0.031045556370201306,0.06880835172943912,0.10660266337403401,0.11386413655533288,0.10587661256741102,0.12084772791168445,0.15113586065045978,0.1126842361806603,0.08954733075874213,0.08936450879323679,0.07392595789997608,0.04322869308561874,0.08132536299645203,0.05066620969774109,0.027661804222817683,0.0428737352179188,0.042807449750841664,0.027458364419428102,-0.003178318215729104,-0.010900258672487402,0.01957081994350305,0.0347411364670974,-0.018883188120949173,-0.0037598354787049147,-0.011588338641596878,-0.0270875056632405,-0.019692134019731505,-0.042890451143545005,-0.06611281044500636,-0.0511440358989079,0.04787878407962522,0.1392772325907396,0.3529748437782177,0.6660653585461914,1.002150569025853,1.292470391864276,1.5217499168544089,1.6976321359652635,1.6214331516640599,1.2090824008974537,0.6668764974679668,0.17054019039541962,-0.13477092505355318,-0.14975083536931447,-0.07309746266864738,-0.027079954312231622,0.026510038294369286,0.026544523386484414,0.01123428960401857,0.011148538021584777,0.011007684486301723,0.026097908473295406,0.025856605363222776,0.04849413363126751,0.048164719200168,0.03251252942071539,0.02446440050545334,0.03166409641892929,0.01590652974764144,0.02304245802702415,0.037790920518467705,0.014305021900374793,0.02135950053666071,0.020748655468690324,0.0048324983110226705,0.042385485361683045,0.018787132532019912,0.04101893424351154,0.040308829600462795,0.0319405558819256,0.03883910366547771,0.03043911992719709,0.02966524134636378,0.02123467819328643,-0.010135507587933239,-0.010955266642515425,-0.01178959001187725,-0.012636608616407039,-0.013493333365441763,0.016210244680197695,0.03063086789961674,0.0374153815194178,0.0518519324545381,0.05102120632963461,0.0807767230937711,0.09527428947788753,0.05631076317198232,0.07851162234809385,0.0,0.0,0.0,0.0,0.0,N
0.7712554858636252,0.5633094054943877,0.224421668857651,-0.2225732467873949,-0.4186179732122324,-0.48604565281838313,-0.39432056244642755,-0.20455826271201855,-0.02368558283342393,0.23242645207290608,0.3804581475272879,0.48925665672603164,0.5436112273052913,0.45953556703386816,0.4357744948033784,0.4265439768620229,0.4395479844842495,0.45956399169659834,0.41023563604429264,0.46737226706085055,0.46291571518126384,0.46569057410209397,0.44518020998655977,0.4396387541290789,0.380337744125578,0.3972243452877458,0.41392454048634286,0.39991105552644907,0.3857861853318368,0.35630149621495444,0.34969680945604426,0.3277956164011237,0.3211927534962321,0.3069912343106062,0.30049974066308704,0.2864596000456466,0.2801764568222509,0.23582288431747095,0.24511624214173175,0.24694361393754966,0.21839813197960184,0.21298624225123955,0.22308166000375906,0.279264309770617,0.25164244898080856,0.23956658402201084,0.19719832105884316,0.2009613459057943,0.19737362606028375,0.1482350338983501,0.1681735517813888,0.165497140143418,0.1631347411908124,0.14580719543087411,0.12880034706789673,0.11975785642752214,0.11103983014830819,0.14085450513557665,0.10222192108468574,0.08683923932800115,0.07942274229084226,0.02648100398895998,0.06555857239125264,0.06674894356799604,0.07589874717811419,0.04715682102372106,0.018727626682612578,0.04409829963382831,0.03920969455013588,0.011699903724897055,0.06854573635776744,0.08748029786865322,0.07614108327424282,0.02688224050438665,0.061962269108982955,0.06675443410382247,0.0412535133334656,0.046585589611697134,0.0445376265299686,0.0656694483358529,0.04120174363402337,0.07810833406342205,0.04647773513136773,0.03800026224106538,0.04502708545227764,0.0522677299807816,0.0673558604349506,0.06735906071381054,0.029344577937085115,0.04500114506931024,0.007339522442598757,0.008048071292871516,0.0318347483609962,0.032841650776786586,0.01870090039503522,-0.018238454823067938,0.028994362219280454,0.038128215991861183,0.032079468003456756,0.0566886536497928,0.004967051075767806,-0.0008306997367572322,0.008720919505336149,0.01833041569699014,0.03563061665657243,0.030046984337000537,0.0015706219088060535,0.003682666206319427,-0.0018332119013307092,0.007938278783048112,0.017705329398407167,-0.010748273135719194,0.014265901899020455,0.023966754610763922,-0.019861066851163015,0.012678972367628214,-0.008324170728051118,-0.014103776618718282,0.010617481112608101,-0.0029377345277297644,0.006357918704668854,0.00793460402689252,0.009429727079808077,-0.012085165539435188,-0.0031240259555797957,-0.017180026000083035,0.022158691603527646,-0.007372209675338475,0.0012064681195005842,0.024969890978681887,0.010427399489804484,0.026351486873802253,0.011609861889147536,-0.010873895193703725,0.0353139217451155,0.0049858614079593,-0.010160603949521922,-0.002484030270402705,-0.02547364698177725,0.012569194482948711,0.042875010990671224,-0.018608653123034807,0.003874996753278717,-0.011932215811193338,-0.004893570398055313,0.055562967600893076,0.02425643630152973,-0.014750758714874773,0.030245121693443018,-0.0012187918179293105,0.04369412873063598,0.03508679792503814,0.03409828294739168,0.048377291647100994,0.05500654201145837,0.07691723919734393,0.07590867458753292,0.05198702919197641,0.028082469005275567,0.05004926461490869,0.05676117839856807,0.025298996700994728,0.04736504470115305,0.015983695173490648,0.03049836481943929,0.014498929040444654,0.013838388228918051,0.013238031541230754,-0.010222375900861455,-0.010690041581691288,-0.018725750286624463,0.011525277179667124,0.011297776318673467,0.0035238831175909376,-0.034713051981311804,-0.011707873515066334,0.041984594236444316,0.019396090814577445,0.012235971747252477,0.012874582627168143,0.021323662709838768,0.037594886877865524,0.046416913710187406,0.05544257833933203,0.05704157412790973,0.06650768175366227,0.053285667630414625,0.0479516043749778,0.0581569336478017,0.05334558313794245,0.07173428333385726,0.10569076894004144,0.07116786756283013,0.09043715910692132,0.09473349657081637,0.07642291950861588,0.08136117770565812,0.12483781946198642,0.1151616184743145,0.12111127594642035,0.11976745916189722,0.1187760492186561,0.14106523806266083,0.10258225596218823,0.14851727313955537,0.17189193709754577,0.20327333992071564,0.20445462064986644,0.27477408912723844,0.26140102311371477,0.2789542459933354,0.29686363213421196,0.28455766113322606,0.28023642185316766,0.2991742158404981,0.30315375956084883,0.29980500266481813,0.28911492419153195,0.3169177332111492,0.29150000605106924,0.2969001958315354,0.3254578400606684,0.3465866272175868,0.3296986184922089,0.35118450993875755,0.34988716195022485,0.40219386616519137,0.3934537937195691,0.4076919306894722,0.4143094732419308,0.42091285329769335,0.3816162473314217,0.38807791442164924,0.4555396571389293,0.43112933112540647,0.42942343381854253,0.4580159392117026,0.49393285481038524,0.5447637174110901,0.6028126844606942,0.7291542831715565,0.7938236556257547,0.8808130337288328,0.8830743092011971,0.8387426117088985,0.7783072007037672,0.716970232239226,0.5247423288218818,0.11747925716322534,-0.2756661911872475,-0.47903199597504775,-0.4697590455110107,-0.38541327176251505,-0.1648381536780823,0.008632889089003852,0.2420573805316853,0.3750418819848555,0.4840768446194103,0.5081046572286968,0.5006871108619545,0.5001005463597875,0.4758457075431767,0.46619393131443954,0.4864898108193327,0.45273669527918975,0.4643304176904746,0.4525525408273384,0.4403797639239364,0.4584279782943937,0.4685377797699467,0.4783962010979859,0.4421977484382825,0.45168072313774027,0.4457521187010338,0.4397312186559655,0.42601071324172085,0.3969810940413921,0.3832379967978767,0.36952634329255574,0.36351350364484913,0.34994063581443735,0.3135470801934822,0.2849191565270128,0.25643434261128495,0.24339305617479487,0.2534529779316512,0.24842184257463565,0.25123775627303463,0.24663030887355003,0.24225219856212551,0.22283052584513716,0.1883740896533168,0.17709784897813877,0.15080127251388542,0.14769749189233788,0.0,0.0,0.0,0.0,0.0,0.6668764974679668,0.17054019039541962,-0.13477092505355318,-0.14975083536931447,-0.07309746266864738,-0.027079954312231622,0.026510038294369286,0.026544523386484414,0.01123428960401857,0.011148538021584777,0.011007684486301723,0.026097908473295406,0.025856605363222776,0.04849413363126751,0.048164719200168,0.03251252942071539,0.02446440050545334,0.03166409641892929,0.01590652974764144,0.02304245802702415,0.037790920518467705,0.014305021900374793,0.02135950053666071,0.020748655468690324,0.0048324983110226705,0.042385485361683045,0.018787132532019912,0.04101893424351154,0.040308829600462795,0.0319405558819256,0.03883910366547771,0.03043911992719709,0.02966524134636378,0.02123467819328643,-0.010135507587933239,-0.010955266642515425,-0.01178959001187725,-0.012636608616407039,-0.013493333365441763,0.016210244680197695,0.03063086789961674,0.0374153815194178,0.0518519324545381,0.05102120632963461,0.0807767230937711,0.09527428947788753,0.05631076317198232,0.07851162234809385,0.05489987318688786,0.07717595522045125,0.03836220757197165,0.06072422876509064,0.06020814476020479,0.06738160053668173,0.07460466581979297,0.05895416374145849,0.0357138186236406,0.03544996970283133,0.027597138905034624,0.04272130964780034,0.057898143464262655,0.06548599796635661,0.06548439611797384,0.05025107861034147,0.03506782324072896,0.035216156551012213,0.05069452005860224,0.05857681467210424,0.06650250719822019,0.06682786187422962,0.0671917201102246,0.09051549886233602,0.0833057307013507,0.1066903182606762,0.0766091056342535,0.05418904547524501,0.04706652349256428,0.02467038023652478,0.05576813387958951,0.04865662754615863,0.049178612688100955,0.026762049047403796,-0.0033166204709629706,-0.025781086772274683,-0.010071815997513353,-0.03260719288185848,-0.032258458169830646,0.021540425706675703,-0.0011119908268687273,0.022050744761131898,0.037541729259891875,0.007156858890250836,0.01495511964719113,0.007449274573262438,0.03813237973285708,0.030592721618530352,0.03832312838640252,0.05368463648759093,0.061396635914895976,0.05381970308061,0.04623847194186812,0.04629585251461594,0.053993068779764744,0.05404820355361417,0.046461979372468404,0.03887630337428838,0.038932850387136744,0.06955601054290773,0.039048156669128344,0.03146477519478227,0.054446608881326186,0.04686114958227177,0.02399016534482947,0.0240395544384851,0.03936636612585145,0.024120255258396936,0.062355412181223466,0.024165171043273946,0.031810564024683505,0.00887467657019872,0.001203712554535679,0.031719466951004,0.001080451231560956,-0.006660065504986795,0.01613663201116772,-0.006946111513363115,0.0005040647983601165,-0.007363095778919319,-0.007624758906713147,0.007359699562217418,-0.031182920299536423,-0.000989484151022754,0.021528278816605666,0.028731826997259992,0.03590687567147994,0.027773177089972623,0.034899033025112804,0.04964533217001784,0.03380696935194234,0.056158958968920876,0.04028850437332836,0.03204580560553409,0.03907358705001428,0.046090048334193695,0.053096103402910225,0.021885161537388495,0.036513644021125356,0.04349167554367136,0.035177927282402356,0.03449667232701399,0.00324036913616985,0.0254645811679615,0.02475430398247191,0.008750409086296583,0.02330091842788194,0.014914897248862455,-0.01640852181499953,0.005744267724315839,0.020242243996262076,-0.01876273390569743,0.018634553282190443,0.010173097475145991,0.01698671363980726,0.04671898197860459,0.03824030417633106,0.02975976127763595,0.028920423754949676,0.035723758439222104,0.03488817787393546,0.04169773535447691,0.010304670993949067,0.017124293899566993,-0.006615780355622202,0.030782529876120564,0.03762301851748367,0.0062653288479239,0.0436907386719204,0.02763684918707761,0.01923595936149092,0.018488591237614146,0.05596099004880194,0.024673121417314252,0.03924686159801691,0.007984682727960823,0.01494232209139889,0.014270744723706204,0.03653538937539055,0.035887075016492485,0.01996662183882587,0.03462194481220134,0.02636194611855355,0.01810990325683627,0.032788961916272584,0.047473448180522744,0.05452043387378637,0.023362388924998548,0.02277042361569185,0.02981807330336164,-0.0013456050346380163,-0.024874245399228175,-0.010204263644199742,-0.010825715839448661,-0.0038131402230810116,-0.019730230488918293,0.017840049714980384,0.032487514258965455,0.047140800767905375,0.06180401990107445,0.07648104661374268,0.06825108231305702,0.10589040411302379,0.0977043961760762,0.08190264553809022,0.06612843134226333,0.027458803847867835,0.04995085046945981,0.04190805994606498,0.08738713264396704,0.05648382379426788,0.04089564212996228,0.02533944616748499,0.025097709315757163,0.024886958915771643,0.009423596819974444,-0.006010280183285476,0.009150287261704878,0.016697735903207216,0.0013488212660699478,-0.006331055557491989,-0.02926668411809075,-0.02160915893199103,-0.006279887764535468,-0.006198225510967938,-0.03664147563452013,-0.013547439812233228,-0.005679535634450412,0.05574629348340576,0.16310009525505464,0.331676003190771,0.6073331546710506,0.9442315705842809,1.2201136867263318,1.4502634049033594,1.5888268876116898,1.4982455879185337,1.0715188341273594,0.5149381118633443,0.08827973305621595,-0.11679457159369379,-0.13088679026750816,-0.06864381893146666,-0.03705866446405891,-0.02085453509818619,0.002890336349048732,0.02653387887068044,-0.01869763173333296,-0.0029002264228955737,-0.0024874406351038563,0.013107833511897137,-0.017244517905270002,0.036361696717709016,-0.017106796177973775,-0.001893619511240957,0.0055912191363682185,0.012993895346586149,0.04324346643039802,0.042854376302568525,0.04239685592994774,0.018950738108783345,0.07185892113383281,0.07886201810860614,0.07052937969549493,0.05450559771877659,0.04607636619850426,0.007036922728021996,-0.009120267369065483,0.043455771203558584,0.06542923815679824,0.02623720950677017,-0.01298610776450716,0.0012519072962621173,0.00018183183982212528,-0.0009097599732017936,-0.017302114262041715,0.004498702865337476,0.0033664463617106,0.017513761641104474,0.008738728858570192,0.022895343869768547,-0.0011428089607250802,0.020685382265758907,0.03489495084660243,0.04913246539367104,0.017554136145355052,0.01657920516050709,0.0,0.0,0.0,0.0,0.0,N
0.716970232239226,0.5247423288218818,0.11747925716322534,-0.2756661911872475,-0.47903199597504775,-0.4697590455110107,-0.38541327176251505,-0.1648381536780823,0.008632889089003852,0.2420573805316853,0.3750418819848555,0.4840768446194103,0.5081046572286968,0.5006871108619545,0.5001005463597875,0.4758457075431767,0.46619393131443954,0.4864898108193327,0.45273669527918975,0.4643304176904746,0.4525525408273384,0.4403797639239364,0.4584279782943937,0.4685377797699467,0.4783962010979859,0.4421977484382825,0.45168072313774027,0.4457521187010338,0.4397312186559655,0.42601071324172085,0.3969810940413921,0.3832379967978767,0.36952634329255574,0.36351350364484913,0.34994063581443735,0.3135470801934822,0.2849191565270128,0.25643434261128495,0.24339305617479487,0.2534529779316512,0.24842184257463565,0.25123775627303463,0.24663030887355003,0.24225219856212551,0.22283052584513716,0.1883740896533168,0.17709784897813877,0.15080127251388542,0.14769749189233788,0.14486724599751963,0.17288071912471537,0.14004409375019006,0.10749178480010026,0.12107459729478504,0.06617224709949784,0.01920021577336457,0.1024223830703219,0.10187851966555582,0.07870025845861399,0.04052853905772482,0.04849409146854528,0.026181255885898366,0.02707886235961399,0.03590251644917328,0.02208477863439683,0.0467554879946153,0.05642255054515081,0.05872527726528034,0.023095422808156445,0.018303361155311927,0.03670480238442204,0.017165181157635725,0.03609593578122848,0.047645141252780285,0.028885056618215287,0.04858516080984376,0.07617587537992616,0.04288010474154726,0.06331528865259942,0.045779371718243686,0.051399078820685104,0.034320538147829066,0.0021798047909074,0.02374440097985614,0.0073112863494258105,0.029289308351197967,0.036182545554858316,0.020343659139597077,0.01997385842792276,0.012142612282653393,0.004485109068012339,0.004636476435161568,0.02787327445239214,0.04362331094956677,0.021314254390176007,-0.008494806137449544,0.015320931254446283,0.039265252820087304,-0.013082496318982008,0.018741932755423775,0.020111657462363562,0.03687025320739395,0.02316373672569191,0.04011830819860951,0.02659677450602534,0.005517745205695109,-0.00020030312849806555,0.009436713960579855,0.02678144511618578,0.013620672427309372,0.008155592502458264,0.0027386047907318766,-0.01791938687940728,0.03023142058224604,0.017281797012768572,0.06549037090038799,0.060230584201441784,0.02442173858855145,0.04211447332281229,0.013964389332442099,0.04694615772549975,0.049356553878564205,0.06703830560556424,0.031212071297543928,0.07177600006355254,0.028252800930657337,0.03054010806755084,0.009857588469387625,0.05025385328426909,0.02181672877747227,-0.0066883841454589,0.03350380633737561,0.01248140153483636,0.029575980516982948,0.016007053408031425,0.002332895407061909,-0.019095572535484308,-0.025361621762945534,-0.01647107406729229,-0.02299316125712503,0.0085604528804101,0.017058466268371042,-0.020423191759076895,-0.01218685451998438,-0.019362011982672123,-0.0037380834095147703,-0.003517197098492189,-0.003410942330939838,-0.018696393625166233,0.004122792124110775,0.0039229115394523615,0.0036362438988770123,0.02619504886584551,0.018117019495855553,0.017617175981252804,-0.005862645654783767,0.0393825800078346,0.031097699745651877,0.02278082480382221,0.022081181882954867,0.021364974094186376,0.0664884780414643,0.03519585696502981,0.07268186115633643,0.06433160027662468,0.04835891743131642,0.04769442438248345,0.024136852356215537,0.0006163328478753845,-0.007578578174110424,0.014840672177020444,0.04495608253958508,0.01400084829249355,0.013678491730404713,-0.04006099623777424,0.020900316712659024,0.020818700780703338,0.02083542178667905,0.005677093030659051,0.013560407534327771,-0.00899542817818778,-0.0008494527446829135,0.02272560133598042,0.02353271773492794,0.039789314922022256,0.033298145276793735,0.03463485581626734,0.04380910769604422,0.045547479212097744,0.01693487477218842,0.011470519473424283,-0.001402449530878445,0.008890686301393957,0.10349059811575807,0.06844553826802212,0.10244180316541904,0.08322424359516738,0.07957356920232878,0.0838555250840034,0.0731525487840966,0.07039538762493448,0.07559005863807607,0.08110077203546796,0.05636699555074041,0.08544961405377884,0.12250449825402684,0.12932854645553205,0.12884968318124573,0.1822024605247586,0.22061605400578146,0.24409182171579163,0.27555438319401937,0.26151258909384295,0.27073718977951416,0.29558307962559593,0.32076234447802787,0.32334413742467727,0.3186032819550606,0.3370958945233559,0.355886314668611,0.32147137707970347,0.3255337790247508,0.36041569746021807,0.3649674977749545,0.35445229170606596,0.3594142758385175,0.3492642357544211,0.3851086180766017,0.3752230262532181,0.3883516898855001,0.3938980495047797,0.36126360388393897,0.397394069473751,0.349423891756041,0.3548608132639122,0.4136646422428707,0.40353013515156655,0.4313936254056692,0.4590017867593595,0.5168722295827599,0.5514642659676415,0.6009320817567191,0.6957856506287031,0.7366272092764314,0.8456577059020447,0.908189305448732,0.8706615833125477,0.8858288546952261,0.8007828877836107,0.6001572087884097,0.2456569754778694,-0.22460110673906455,-0.45156045734600125,-0.47349881054047543,-0.4203484603886661,-0.22331889266021776,-0.012257485930570803,0.2358386933731242,0.39114464643139324,0.4690218372421081,0.5153955934506058,0.5532645330650143,0.5444930583740991,0.5197158989280297,0.540130881182381,0.5141041361597457,0.487545281396449,0.521644273593484,0.4789108058159029,0.4663785178729698,0.4535324678517804,0.4633455658455617,0.4652982703864804,0.444151632964223,0.43815456247584383,0.43206356316151223,0.3953500388032365,0.38918069097730107,0.3753813315550301,0.36926601040301327,0.3632225359531594,0.3267125057793019,0.3132517046120126,0.2540910061365445,0.28679899853183516,0.2891335348708633,0.3298874052984739,0.27153267353962973,0.2821979475892412,0.27784246797059736,0.25083861264399265,0.2546890090987765,0.26648048220449144,0.21744985432958833,0.22986898650696597,0.0,0.0,0.0,0.0,0.0,0.5149381118633443,0.08827973305621595,-0.11679457159369379,-0.13088679026750816,-0.06864381893146666,-0.03705866446405891,-0.02085453509818619,0.002890336349048732,0.02653387887068044,-0.01869763173333296,-0.0029002264228955737,-0.0024874406351038563,0.013107833511897137,-0.017244517905270002,0.036361696717709016,-0.017106796177973775,-0.001893619511240957,0.0055912191363682185,0.012993895346586149,0.04324346643039802,0.042854376302568525,0.04239685592994774,0.018950738108783345,0.07185892113383281,0.07886201810860614,0.07052937969549493,0.05450559771877659,0.04607636619850426,0.007036922728021996,-0.009120267369065483,0.043455771203558584,0.06542923815679824,0.02623720950677017,-0.01298610776450716,0.0012519072962621173,0.00018183183982212528,-0.0009097599732017936,-0.017302114262041715,0.004498702865337476,0.0033664463617106,0.017513761641104474,0.008738728858570192,0.022895343869768547,-0.0011428089607250802,0.020685382265758907,0.03489495084660243,0.04913246539367104,0.017554136145355052,0.01657920516050709,0.030929368615206548,0.05296769463218155,0.036849822473945214,0.0437114943619775,0.07355662952725153,0.0499743802165247,0.08758990196026545,0.05650154545146175,0.04840941387114748,0.04039150525251403,0.03244994010970625,0.07807682089806327,0.05501062644171312,0.07023309046091016,0.08553802961196322,0.07800181907107794,0.07054913538035724,0.0937457199154834,0.09410095803704342,0.08689685996109385,0.1256222396122729,0.11857783442010533,0.1268928505564053,0.13528135287707063,0.1055324072457236,0.10641477091666277,0.1379235798980807,0.12363888969757166,0.09412043400227149,0.09521023799021566,0.08869385296785175,0.09748799293183154,0.045170015454775586,0.053994616578872515,0.07810425995739798,0.018150955371823586,0.02695433189057534,-0.002475536823626249,0.0062662043444641526,0.014962823045975094,-0.006960989556312571,-0.013666068686990085,-0.02808568186070962,-0.04258597894490053,-0.011323167453843304,-0.04127850608730579,0.005094377121432469,0.005536310946242034,0.013541560070618009,0.0061898130697572865,-0.0012320349755721234,0.029487244594355286,0.006654265157123509,0.014328954035603268,0.014307927798550155,0.029519370111344,0.02940120920100521,0.013957045068400481,0.006114695236373626,0.013518997757193592,0.02089039558163066,0.035873628593489,0.0508304225392462,0.05048086895456233,0.05011062459368206,0.0650050938065056,0.02639342712039196,0.033616456576066496,0.048468695078980495,0.03274448745230209,0.017011029759793145,0.04711826402812647,0.03136986006068764,0.030898348923028746,0.030421556404657924,0.029940063488687333,0.05237866357846985,0.04424745195029708,0.028470810413886192,0.027972899541694254,0.03511191818142863,0.019321560788276043,0.04173280436992404,0.04885470668614098,0.01776193620337035,0.040150739754637566,0.0013979946110792116,0.04668984194106118,0.007912767373327176,0.022611216794385585,0.02201031577469944,0.05959835431143763,0.05131732518205123,0.027730745812335204,0.06525060609750438,0.003403657156139168,0.04850615630215888,0.07065033075352493,0.023984168466835102,0.015484401000520892,-0.015984366546664838,0.028912945198186938,-0.017937985370795016,-0.011351975874559696,0.010462943950370538,-0.028907451408191006,0.023366205503079638,0.022099289481090748,0.005501974715907286,0.027067234586495282,0.048590556849854784,0.024225839084138206,0.03803146824017759,0.0288780681287966,0.04261644020091849,0.025758328562359,0.00122981266347621,0.037805572219031296,0.04378972909856047,0.042108038783854385,0.0404031281227093,0.06160032310807659,0.02928583476250052,0.019874662960396475,0.0639329320909598,0.02391466063123511,0.02972446688720874,0.027871933367378955,0.010715223013955862,-0.014104730905168696,-0.02366413901286939,-0.010320781667933772,0.0030039894933595107,0.023955622679687583,0.014330822023733836,0.019982175149486237,0.01798910444275293,0.0007138420638149167,0.05985744318219779,0.02731149474728844,0.017701113600208748,-0.007177816828880807,-0.001473498345969763,-0.0033894541338668517,0.03292693587637988,0.023423881426401883,0.03687852447663778,0.012163157542654575,0.04097898560088425,0.039273691430460264,0.014692211027680419,0.02836946791910569,0.02681848953012625,0.01768380018018791,0.031534154624311916,-0.0004006937562485508,0.028862312130496712,0.004704077004888419,0.026466096870588755,0.040660747357387186,0.024366091135286493,0.06164035536799325,0.05314672916457358,0.09058446449917576,0.09754054107346632,0.12750621799225317,0.12699189886019743,0.11892189817761381,0.08037116642927584,0.0648286079172094,0.08757545087423628,0.09511950580606955,0.08745832923988775,0.07987191179068921,0.04943253256845412,0.019060800379649485,0.019318531710754244,0.019635809002850245,-0.0029159270529651366,0.0051492144821044476,0.005619943447832772,0.013775127836641466,0.006686333327863339,-0.0156505787467854,-0.015032506273883138,-0.03731086360444503,-0.028996724046623238,-0.05886089385931749,-0.04284232775915565,0.04199397258075614,0.14217252708170583,0.32648092317790756,0.5796500341715222,0.9781065590721869,1.284974650089719,1.5308244883947424,1.723295465756608,1.6713414939126903,1.2297565971790818,0.673606459511495,0.1556873385998662,-0.12535914684212007,-0.1390041630763082,-0.08395061252582288,-0.028983459892832544,0.0029690344847304387,-0.011018636302376098,0.005466918946199901,-0.008706048966879138,0.022876870594592702,0.02380181848798705,0.009352279298413722,0.0024530734445643034,0.0031046100557103485,0.018948740838430338,0.03470293744822906,0.042726031639581566,0.050659591337623926,0.05850351599465966,0.01276726786631461,-0.025418160669250227,-0.017846205598236343,-0.010363891450999752,0.004673636530356337,0.0043463983027195435,0.034507484038863646,0.0034637750114327186,-0.020007468348188378,0.009946632544487372,0.03220048918599916,0.04676010208111864,0.00014112683345042097,0.02225390147027356,0.006123663190327903,0.00524608961900694,0.01198518902199315,0.01106348859184656,0.0024863652805307292,0.001542050407914475,0.008235853176691729,0.04549743960732727,0.052200431271601684,0.05127422552351536,0.05800650387223771,0.049477417242438336,0.056257010424988284,0.0,0.0,0.0,0.0,0.0,N
