0.0817734653449308,0.0810788491962039,0.07935728791522317,0.07721950004896555,0.07558876972533121,0.07543400035320115,0.07751370265981575,0.08210854470288406,0.08882094394657095,0.09664200837900483,0.10408626747777679,0.1096286276144723,0.11226860518593848,0.11210833782880303,0.11087409630087698,0.11203983834504251,0.1206109689873467,0.14242866566899293,0.18306364618604334,0.24652344160386708,0.33392731893131344,0.44258589948715177,0.5656879884748406,0.6927765596863626,0.8110123105912287,0.907017202495216,0.9690375945228432,0.9889473112806882,0.963700832229412,0.8958724627645832,0.7932155939162046,0.6673526802313742,0.5318343410533594,0.3999837758952242,0.28293350618689145,0.188189559716997,0.11903439996179994,0.07472137082603046,0.05133946091030862,0.04310984118193397,0.04370757142146323,0.04750217011535174,0.05039374555236676,0.05012944249795029,0.046358948832982055,0.040001504033278686,0.03267683792586327,0.026066120278703062,0.021322169483520226,0.019083962818609326,0.01914475978295896,0.020732732897397257,0.0228185258635322,0.024357601482596653,0.02481873267750929,0.02400042902491045,0.022099507231520703,0.019570931448361337,0.01685531842506308,0.01446737264092752,0.012593993510508356,0.01117918368546305,0.009997894540583897,0.008687089645955296,0.0071493969909597315,0.005263873138465776,0.0030092950543347424,0.00042485763280646256,-0.0025389345382186056,-0.00573754621075715,-0.00923845974536263,-0.013124452195724296,-0.017403691891112925,-0.022233830992890058,-0.026757447180504518,-0.030626420277744128,-0.03352670244934506,-0.03523224141503231,-0.03618133858325248,-0.03556886817856109,-0.03389203736693001,-0.03186098390036834,-0.030122264373833748,-0.029299006243511266,-0.02882367301071919,-0.028335211400712105,-0.027275333206518267,-0.02501228733263519,-0.021032443153782145,-0.014940430669018736,-0.006755816201096245,0.0031276056867821805,0.013996108834848078,0.024905889956014945,0.03495624905806699,0.043314383456600124,0.04940612427691287,0.053004505002331344,0.05422296536543257,0.05353835869555898,0.051587659654348444,0.049055023376631916,0.04653391812273189,0.04439655069211346,0.042831823139739315,0.04176444330275855,0.04094828581946132,0.040063331243132425,0.03878833966750559,0.03697852826047121,0.03461306607976213,0.03181914795178581,0.028826183124894503,0.025872836023750866,0.02320339041318263,0.020946984213150693,0.01911064844551925,0.01758903500665658,0.016189474882658133,0.0147333856607448,0.013079272635532253,0.011171386944765847,0.009053085622973396,0.006836076126575685,0.004704194396205749,0.002852665991097482,0.001434036414045877,0.0005171362392902129,5.245453447133487e-05,-7.989949725610735e-05,-2.5513411232318026e-05,7.139877866175249e-05,0.00010242931375568825,-1.0040206172323251e-05,-0.00023242844828249122,-0.0004540916741466492,-0.0005263866357815212,-0.0003122776117788364,0.00022868469495611454,0.0011226494554121484,0.0023239886301726583,0.0037344362528330638,0.005225867795046704,0.006600784439608402,0.007831811070733528,0.00890348277006678,0.009856206391824399,0.010764013201872246,0.011606137657202304,0.012553284359957421,0.013653381110086193,0.014911899459174248,0.01629241937004942,0.017622018728651153,0.018918897455881226,0.020106761932021145,0.021103234613396252,0.021820825538226594,0.022068621771869138,0.021889610956041413,0.021289355331997648,0.020333046854942763,0.019148524743884468,0.017813497480684674,0.016647796396831692,0.01590585971106474,0.01580465248725656,0.016476223949542346,0.017834447986650237,0.019876818361733353,0.0224508512482474,0.025353694088758753,0.028368180695864307,0.031193496040828876,0.033785931440311376,0.036123020974758654,0.03825302696827306,0.040260137442186275,0.042117664523253315,0.043975697837458146,0.0459009731375382,0.047924264202367554,0.05003347087798843,0.05207060561768152,0.05406413440148752,0.056004773879325565,0.05790878580222919,0.05980680431379058,0.06162002119560986,0.06346174186930285,0.0653844818172727,0.06742163065001174,0.06956893736383729,0.07166752957372739,0.0737326076535085,0.0757179987399591,0.07759034616446607,0.079331070413884,0.08082439945998007,0.08218203599687421,0.0834729770844517,0.08477139283645867,0.0861303214484195,0.08744762012822198,0.08880304666322432,0.0901850344936821,0.09157070737227743,0.092929572482955,0.09410917712212977,0.0951971860975336,0.09622540099104715,0.09723766623126034,0.09827076003012619,0.09922639701883712,0.10020760205887258,0.10124348281242021,0.1023669378324868,0.10361194757729739,0.10490000478433072,0.10635433977217852,0.10802182438234759,0.10991973032610376,0.11201094060215042,0.11391118449819489,0.11573969143682195,0.11745843834828973,0.1190345771112212,0.12040993362700345,0.12102537471452154,0.12119116984633725,0.12102356216249512,0.12070427193180884,0.12042254343366902,0.12003089911880936,0.11983577526320303,0.11987944362538006,0.12011860412323644,0.12043515324033463,0.1205694655444558,0.12048575475415435,0.1201107056669859,0.11945666581004928,0.11862436101651015,0.11769285337021004,0.11694549103302311,0.11652896973968614,0.11650083251500053,0.11681356879268566,0.11726333084764111,0.11776439155126527,0.11814604238234082,0.11830235972849155,0.11823641325810173,0.11801338706806087,0.11791630662409175,0.11812962971922221,0.11873866441268364,0.11965925772351778,0.12056433538649325,0.12106601785666862,0.12059487007827926,0.11866280234588893,0.11509900527879784,0.11024306171027803,0.10527328528904877,0.10201072576626094,0.10287016466390021,0.11053875283407795,0.1274458428552368,0.15535086729241745,0.19454993482586466,0.24358601907854813,0.29915913776620456,0.35635373536922754,0.4093733790128268,0.45216665673983075,0.4794854240928913,0.48777952269833125,0.47580200873989287,0.44493425011766435,0.3987397090899426,0.34243429005753523,0.2820162689099645,0.22330829006394612,0.17117182835933675,0.1287363883304309,0.09725570967406452,0.07625301512159774,0.06395777030628515,0.057909654119589565,0.055409294029708,0.05410540844305403,0.052341188388173344,0.04925843718396343,0.044848523155149575,0.03950506509967732,0.03383921286495539,0.028429361654748957,0.023584077261110257,0.019497753679462746,0.36524797403951126,0.37495104899775333,0.38507876095251015,0.3950628587578667,0.40498297894367075,0.4146351281862015,0.4237629501101068,0.43205009387779175,0.43869788765747614,0.44374605330491307,0.44716829402202757,0.44913802993240637,0.4500332567662635,0.45002451107007846,0.45036181282857524,0.4523975774602289,0.45773580140353465,0.4680164196547351,0.4841973339954661,0.5074618814201151,0.5379091124626313,0.5745635599833999,0.6152876535819898,0.6565591074733926,0.6950408779337823,0.7272053189058811,0.7502382662881658,0.7625588875092445,0.7637591689422414,0.7556337985486378,0.7408614656905598,0.722673865547517,0.7041451473217403,0.6872366299835555,0.6734494606074227,0.6627364834291934,0.6540382374314085,0.6457314071342363,0.6358472262055956,0.6235650609749663,0.6084432920685993,0.5908252783219853,0.5717050034216252,0.552147640220195,0.5339821501372423,0.5184165046869994,0.5062206815171257,0.49767859970901407,0.49233958630251873,0.4901246130365625,0.490298936734274,0.49197245596844996,0.49422097349163296,0.4958670717387835,0.49668775114161023,0.49621200368659946,0.4942149007465019,0.4907633472742518,0.4858464130598537,0.48051759720666665,0.47534162138866837,0.4707245872713493,0.4668105920865441,0.46309603089729545,0.45961250207411575,0.4556282349356413,0.4502927906529897,0.4428578368988364,0.4325598128777394,0.4198453882262723,0.4050289132772419,0.388718602925198,0.3717260447888685,0.3545937779354933,0.3386814749786988,0.3244083731822991,0.31180446117301475,0.30059425267890055,0.2899718686687954,0.2801222473955089,0.2704663726554681,0.26051427342229516,0.25003223592317175,0.23880923309249139,0.22783448238282852,0.21747260101903393,0.20798181789600478,0.19947021916744295,0.1916195075631536,0.1847566954716013,0.17840623692306012,0.17200800454704873,0.16513592926784174,0.15743819725250865,0.14965121839111076,0.14222380762502337,0.13573576181695834,0.13080163936824055,0.12773543115289535,0.12724002695875497,0.1291401684530265,0.1328366029766913,0.13744152061908976,0.14173813264746646,0.14523540215862185,0.14711272250582139,0.1467993820843615,0.14408140186993895,0.1388866140498694,0.1321465018864958,0.12443753220026466,0.11632226050203213,0.10827629479997815,0.10037196269436714,0.09317080233558286,0.08646617564904752,0.07977533800264228,0.07247118773001734,0.06367989219598852,0.053409867062205664,0.041457822398810226,0.027944394310627604,0.013365863491135312,-0.0016750235135014678,-0.01581966498629029,-0.02818838856960123,-0.03821197330215029,-0.04573946074774673,-0.05122246245357466,-0.05498985661884645,-0.057886063101317047,-0.06074193954090848,-0.06413229904852111,-0.06840215635639092,-0.07299120261411422,-0.07731216600180037,-0.08068054078932663,-0.0825251373492955,-0.08275823888073887,-0.08119722701828054,-0.07826045706269309,-0.07459391072719362,-0.07087042644389549,-0.06782340618465554,-0.06538202923793844,-0.06339604716187437,-0.06148971227755947,-0.0592157155384955,-0.056480996591086484,-0.05285541293966239,-0.04838287575726288,-0.04332200092984756,-0.038051479669429206,-0.03324440840457046,-0.028825008496360965,-0.0247731949788359,-0.020891482121222313,-0.01688724380036291,-0.012816680659515035,-0.008127605430691612,-0.002679260014222702,0.0035050880296004666,0.01023494030572844,0.016815350801027914,0.02318192176540314,0.02897724420293291,0.0338295807086198,0.03735712441181979,0.038815501663792745,0.038308848605414225,0.03591519370840582,0.031987092886830784,0.027137549732401237,0.02178704012787552,0.01718036429798418,0.014346863794147563,0.01411565535171231,0.016917975052982686,0.022286434798239017,0.029988521026432013,0.039345785164138544,0.0495755813938692,0.059938472709557114,0.0694523851495199,0.07816119761455548,0.08630486844701982,0.09438553740764882,0.10295897036613152,0.11199193024386644,0.12197680587694461,0.1330146079394168,0.14498359133656757,0.15754579033935334,0.16973806053191867,0.18140690491884948,0.19235664760979448,0.20256932542717657,0.21213261031257516,0.22065558204377786,0.22862619370938003,0.23634444874628402,0.24408800890753113,0.2520295129201953,0.25969405714037963,0.2674078803926039,0.27527436987301646,0.2834166524289629,0.2919264155278155,0.30031463297577443,0.3089433022634338,0.31791847825724595,0.3273074028475268,0.3370697083039948,0.34651566749334184,0.35580680932094233,0.3648612652143676,0.3736575442669051,0.38221300108017403,0.3900426106062331,0.39764133200222096,0.40525385501745076,0.41310079055554816,0.42128114668810274,0.4290602109395653,0.4368151236207235,0.44457454372938976,0.45240188501637124,0.4603492922960315,0.4676077580487881,0.47484024490671994,0.4823311099811995,0.4903372788243184,0.49894320698124917,0.5073671948398408,0.5157268611643848,0.5237081374296382,0.531032467911659,0.5375371216664668,0.542837879735519,0.547505183360701,0.5519845715472651,0.55673302685938,0.5620445867886988,0.5675640301195535,0.5733320282196342,0.5788359278783407,0.5834387477968117,0.5865520519109308,0.587484911565917,0.5865537084984561,0.5840914178355547,0.5806739431467841,0.5769755855349492,0.5733358132032349,0.5705268192749015,0.5687173375450577,0.5677881920730639,0.5673991191589675,0.5668517418531234,0.5659750077899731,0.564285072257945,0.5614072910166142,0.5572201547976523,0.55175848099974,0.5462638944265633,0.5422135091594522,0.5416586112499642,0.547041190436337,0.5605178299575966,0.5844100957039435,0.619394261091147,0.6644009382122887,0.7163892135467479,0.7702307093577433,0.8202206393920942,0.8597851907137227,0.8830103429100149,0.8857372366571586,0.8661284291233426,0.8258985308035319,0.7688956526434635,0.7008466731048567,0.6283739849871813,0.5577021023965468,0.49446604430720115,0.4418915851048502,0.401026986515239,0.3710107333172041,0.34949990701295425,0.33406725412954086,0.32178322098734813,0.31022536470237594,0.2978562221114929,0.2839756113421286,0.26921666027287017,0.2540977218271267,0.23914798840493792,0.22470171090578167,0.21067150694928433,0.19721337020502896
0.9419979857482422,0.9649496375962023,0.9395600930715957,0.8690080260950444,0.7617354061294378,0.6301100425135955,0.4884073251400675,0.350566069783639,0.22830627829763292,0.129492245700891,0.057588748963486924,0.011865012683932748,-0.011744347310181168,-0.019199819886083238,-0.017132604560880112,-0.011497726449137357,-0.00668512960954428,-0.005198106643553095,-0.007476890872821615,-0.012660610174899913,-0.019142244806105206,-0.025235271903021307,-0.029818663430644213,-0.0322181481973346,-0.03262164323310323,-0.03175553718423297,-0.030563142811458006,-0.030008897088970348,-0.03041785817167053,-0.03180050291123582,-0.03380257645337386,-0.0358910137198947,-0.03771696328342034,-0.03884208365562008,-0.03923541492916714,-0.03911659727162369,-0.03883946754119149,-0.03887358859974184,-0.03928182763152165,-0.04003377186803857,-0.04094565958141266,-0.04178792136248828,-0.0425212507736642,-0.04301957255590156,-0.04337709483080712,-0.043767034124937244,-0.04434493625528746,-0.045512665600021346,-0.046587264919855036,-0.047333744617623956,-0.047502314889932284,-0.046901951148086644,-0.0460850954009869,-0.044193383635595114,-0.04166415155450375,-0.03910452681861875,-0.03702094268073967,-0.035948620110899325,-0.0350890170349625,-0.033846095334014996,-0.03145133238815201,-0.027139934213392693,-0.02044743516831344,-0.011049482009657089,0.0008979275235401947,0.014821531767538055,0.029812530593014183,0.044684861426706926,0.05844696750397872,0.07028495567006621,0.07974194244592706,0.08676499539942105,0.09158183050363544,0.09483097941343974,0.09724984497117581,0.09952670908955552,0.10214172245125895,0.10519453736784867,0.10860809386358519,0.11206953547228674,0.11516783865173671,0.11751844950309684,0.11880094131772864,0.1190085018251181,0.11834515603726198,0.11717249787411496,0.11589625959326574,0.11478621418054638,0.11406883908162384,0.11380830134001849,0.1139315440253347,0.11427406968343466,0.11458358301973813,0.11474148549192026,0.11472196934242555,0.11458884539373086,0.1144478269086028,0.11433733722427471,0.11431498970969219,0.11438824918936377,0.11451545765861743,0.11462158413377095,0.11458377360722853,0.11435994444948937,0.11397675244050381,0.11350859842549242,0.11304214882171755,0.11259565664140368,0.1122100951300789,0.1118995273464984,0.11165694905881877,0.11146271350966418,0.11124858421600914,0.11103158703232076,0.11084662803079728,0.11073659624520357,0.11072367626584761,0.11072027468823611,0.11073065782146958,0.11067106237846905,0.11044817865976746,0.10998463902203105,0.10915349929166243,0.10807805268462137,0.10681134157113888,0.10542744984637621,0.10400681744477842,0.10253529682047455,0.10118908113347942,0.09999348931955122,0.09894498749099152,0.0980289958675258,0.09714933065150266,0.0964356172055255,0.09588055156442289,0.09545871563675808,0.09512686418944598,0.09473904308960128,0.09435069127031431,0.09386823212092829,0.09318852421858972,0.09222473251136618,0.0908421389863538,0.08917093610526722,0.0872505404287272,0.0851464725925189,0.08294595160521159,0.08066935058176539,0.07854149452644829,0.07663905053392582,0.07500699786272558,0.07366717069905701,0.07255257752089819,0.07177476539926833,0.07129392105545553,0.0710359923932608,0.0709028889597199,0.07070650506597416,0.070451940476317,0.07001488347216092,0.06927459581500138,0.06813860722038277,0.0664833184584347,0.06444693266669702,0.06209137853526877,0.059513113755276695,0.056835084856600986,0.05410939315859214,0.05157870356080087,0.04931364824333114,0.04731729074378235,0.0455315624928192,0.043774014210062405,0.04205184536137638,0.04025315055822993,0.03829801725677708,0.03617056717672785,0.033854045936934016,0.031600745628427705,0.02957747685103175,0.027941473221358135,0.026809571860636497,0.02615734467173691,0.02607698887967404,0.026469406884193143,0.027173972299782197,0.02800576212394945,0.028705548178691264,0.0292554636173662,0.02956058652560028,0.02955598917873871,0.029201952387262406,0.028384490279072982,0.027227768200512946,0.02575705853055726,0.024021245795651115,0.022107020961080973,0.020009168106442363,0.01805696277911848,0.01646393708879251,0.01541317597906255,0.015012089534899542,0.015082962218279218,0.015713774083981998,0.01677448943808891,0.01809556638492893,0.019502752447039338,0.020529290690248284,0.021399596777183047,0.02220128261432372,0.023047176738272862,0.02399341535917914,0.02452357933753684,0.02492264938220503,0.025188932624124017,0.02535750904578335,0.02549727632621907,0.025420058976179695,0.025451645736744268,0.02571102717503474,0.02624625822438255,0.02700113729325899,0.027743137636359327,0.028344317168472674,0.02862209684750647,0.028485847572512546,0.027989600472701312,0.027278000691170527,0.026733101504648533,0.026696965030270733,0.027421185597911193,0.02897806365214363,0.031174963098353402,0.03373341156654255,0.03624059920170252,0.03832832313423903,0.03981202653225014,0.040746880589177005,0.041596598455324395,0.04303123832329148,0.0458226161190473,0.05064598941235666,0.05783953867291415,0.06739657541850835,0.07879690238177363,0.09114997754545555,0.10342773856790988,0.11474988134155482,0.12483078792293922,0.13411963859849718,0.14391393753644577,0.15620948772346308,0.1732846553574849,0.19722884336985982,0.2292246947083592,0.26902854151656763,0.31465965210089497,0.3624147023112261,0.4073523161124858,0.4439659685911972,0.4671449082520679,0.4731098164783268,0.4601325882960539,0.4289407258400901,0.3825740980017439,0.3258943293365698,0.26475962614555315,0.2050413669084086,0.15179396638907824,0.10850158064157502,0.07677820792476325,0.056409435812779546,0.04567872888723032,0.04203147273128862,0.04259255016834981,0.04475966679521489,0.046597428680759,0.046963194543474064,0.04565051380091019,0.04303274650168596,0.03982475943655094,0.036785421548738456,0.03440225127762887,0.0330030840476018,0.032524832478178244,0.032655608916998265,0.032970349313959126,0.032990829088613643,0.03256433624545956,0.0316653773510079,0.030445432484922198,0.0291552770791798,0.02795377844998353,0.027113335290722438,0.026695071722176215,0.026630754120107077,0.02676006939232239,0.026783832789082394,0.026663519569717166,0.026272629285951456,0.7968951567498809,0.8084975627124272,0.7860299573166747,0.732563352983924,0.6542394248028643,0.5597294156812587,0.4588338271114801,0.36069258800849346,0.2734364613227166,0.2018527236973662,0.14753479479273507,0.10917009151053293,0.08303157889043597,0.0651038491110644,0.05081201488032053,0.036480275487873436,0.019982217261402358,0.0005379144349266563,-0.020141641522566405,-0.04001474747864456,-0.05691355023012711,-0.06920565698772822,-0.07676117984850574,-0.07936462310194539,-0.07829073816630273,-0.07532135765000665,-0.07221803810057385,-0.07082779283943785,-0.07099986621679025,-0.07238591453055546,-0.07412709389605505,-0.07523041921341948,-0.07555130591566872,-0.0741188423398914,-0.07103505267284489,-0.06681603556957877,-0.062174004619927656,-0.058385870480961506,-0.055244651663252556,-0.05275554116246092,-0.050756383119776996,-0.04911759002643584,-0.048510773688463696,-0.04861043562744407,-0.049616711363836045,-0.05164380281371639,-0.05456236713639185,-0.05867034290346934,-0.062266381329809196,-0.06424730371884631,-0.0636594294983821,-0.06000714424634783,-0.05438793545167232,-0.046440383201275616,-0.03736536569191786,-0.0284992438863159,-0.0208347546299359,-0.015371220857247965,-0.010566809728415128,-0.004754290681088635,0.0041935307960125606,0.018337634986476028,0.03857642109937386,0.06590886482271598,0.09984560518152336,0.13881789464982291,0.18042526521200558,0.22135380737303764,0.2593793061321058,0.29266934465599587,0.32034598944352555,0.3425128954375352,0.3596172150474362,0.3734374450119835,0.38575417989239086,0.398120179566363,0.41149101728862836,0.4256095586298752,0.44029862317305796,0.45483139516462195,0.468419479446156,0.4804691391397215,0.490340635815574,0.49855959195357347,0.5058926951645981,0.5132482877977018,0.521325054571005,0.5299459527504856,0.5390529048367996,0.548013094051908,0.5559889965359485,0.5621809700022885,0.5656969099165694,0.5667389102943049,0.5658691941966785,0.5639992429676157,0.5620892332615508,0.5605422121167005,0.5598921103338027,0.5601498082135533,0.5610102593437992,0.5619974965208132,0.5623858113297402,0.5620677719795517,0.5611274398243535,0.559870729987859,0.5586605811266244,0.5575178699089286,0.5566844940482035,0.5561309524224369,0.5557263825478487,0.5553236657324356,0.5546357112778165,0.5538831648957567,0.5532804542806817,0.5530565510902408,0.5533185298430314,0.5536921382433713,0.5541388313640709,0.5541948305088924,0.5533713501008993,0.5513133939536271,0.5476043833126325,0.5428603003546091,0.5374801723601742,0.5319174149720183,0.5265481955373376,0.5212623025203357,0.5164764081600444,0.5119085376725365,0.5071373331016681,0.501782997121048,0.49536727678404524,0.48843788989154335,0.4812037788096868,0.4739278327904534,0.466841939887142,0.45979357433644524,0.4531983876127682,0.44670269672165897,0.4397763731314353,0.431900882653236,0.4224997002980698,0.4120035770961586,0.40051907231243755,0.3883086597985662,0.3757584590104136,0.3630896730169526,0.3511466584571151,0.34003393315231906,0.3296144727503727,0.31961603536759114,0.30956283200746615,0.29967143157767906,0.2896824918002864,0.27939878988035266,0.2687662411696189,0.25771820518731176,0.2469550961973985,0.2366629935931271,0.22695849176228594,0.21791644697164667,0.20940171120616433,0.20187410628496413,0.19516084881227436,0.18896388189413257,0.18295290605639544,0.17664252741608427,0.1702658391401373,0.1635430231492964,0.1561891288397588,0.14798936514114422,0.13864500029195495,0.12866119233813053,0.11808475438493483,0.1070043592549175,0.09560065390582755,0.08393070629078209,0.0727786342688814,0.062315615719291714,0.05252218850032948,0.043211942670510844,0.033848888514016746,0.024557825781728115,0.014968802016860377,0.004810739785833424,-0.005951545390802929,-0.017319848464452704,-0.028345627218864047,-0.038520322291429585,-0.0474816068742472,-0.0551150334521167,-0.061871819194190096,-0.06771713762031302,-0.0732452518135648,-0.0790422946892262,-0.0854619679128228,-0.0927819786962609,-0.10013629061937393,-0.10685246060901543,-0.11224262628876981,-0.11580890237352891,-0.11772552577381208,-0.11779295077027145,-0.11655576138677134,-0.1147375758113417,-0.11301007360246096,-0.11216035745632182,-0.11181482102901417,-0.11167138470590864,-0.11127434687847534,-0.11021124483139304,-0.1086844006124331,-0.10633018255366529,-0.10339437137480828,-0.10025638377103603,-0.09727184850592949,-0.09504516751001778,-0.09306950930443496,-0.09094435789331898,-0.0881689774259707,-0.08433245218046594,-0.07970304195118814,-0.07398628969335524,-0.06745681451766367,-0.06052394751098634,-0.05359759044064195,-0.047339593941357894,-0.04145343756148159,-0.03567082539961608,-0.02959428593550514,-0.022862728700817975,-0.01562275847145394,-0.007641843195396,0.0009196387241865517,0.009780102000268218,0.018631442233130683,0.02690632031916927,0.034833281097221974,0.04270872029939669,0.050988525241147054,0.06012561316707935,0.0700588148509114,0.081097113923506,0.09318521936373586,0.10606461677787228,0.11931637506383108,0.13211204961366532,0.144304375501323,0.15588670240472616,0.1671341339312892,0.1785071369605828,0.19016410084361296,0.20274183246098465,0.2166191326855105,0.23188535352737114,0.2482388179549775,0.2646834692124405,0.28050530448508226,0.29494841518603226,0.30749442201605115,0.3179704989493722,0.3262977717377557,0.3331899765329532,0.33953000196745414,0.3461916045857407,0.3537470746768072,0.3619919488627842,0.37059325930326126,0.3787357772917288,0.38538651759106596,0.38952365040424225,0.3901309655429381,0.3870566792096153,0.38067591020822106,0.37189765221600884,0.36196494103235727,0.3519669743329372,0.34330244609654204,0.3370528169971478,0.3339686289979645,0.33440623166047234,0.33808004939930125,0.344802019597073,0.35403046344797606,0.36503235870715667,0.37692102958650453,0.3884475899682651,0.39892823623394197,0.4077333712899453,0.41455331359308656,0.4194358275125368,0.42244305002333515,0.424479402034907,0.42634216218206533,0.4287110116431965,0.43193722386058025,0.4356052536272644,0.4394908261293164,0.44282036556403725
0.9772260627796518,1.0006505165814363,0.9771904184399884,0.9100039403385184,0.8074064625347751,0.681482109982161,0.5460752439378874,0.41461032828355615,0.2981880884358473,0.2041428185093671,0.13555058291356697,0.09149997129433872,0.0680132060394644,0.05936368246378038,0.05933556988275035,0.06244497439016706,0.06472683748362787,0.06401093587334929,0.05993922727227292,0.05329849496300061,0.045492181993530056,0.037953703672917005,0.03162885526953106,0.02703190067033085,0.02394238615297113,0.02171264224703495,0.019566649096438914,0.01681165795440281,0.013308997563183869,0.009205716746105925,0.004962655322927201,0.0011795945199608291,-0.001691081844429763,-0.003238558790562458,-0.003504280603071546,-0.002839303571696925,-0.0017796707468204418,-0.0009488761904226526,-0.0006804474292882029,-0.0012158538402509288,-0.002601075422794219,-0.004738936013601712,-0.007525865250178345,-0.010737295055862626,-0.014292260665894218,-0.01815334050686887,-0.022267482799999083,-0.026797776251113136,-0.03099511254234777,-0.03464838007325413,-0.03760512930069225,-0.039796029586396456,-0.04180000339437863,-0.04284678833289145,-0.04340405780105118,-0.04406421917724641,-0.04527858772276674,-0.04744517428240284,-0.0497135572074446,-0.05149356199032667,-0.05207158168999846,-0.05076114585913701,-0.047122491972867324,-0.04087330961512718,-0.032222297595989394,-0.021758783761152846,-0.010353476239180382,0.0009417389312491244,0.011244798065464526,0.019788143905526783,0.026099818659698185,0.03005419338077625,0.031811717550230746,0.031885676647232596,0.030876437966178488,0.029392859618493933,0.02794066093684926,0.0268045214248648,0.026147574241560823,0.02590798746208266,0.025887719671149417,0.025827128492922274,0.02544332995708271,0.024609791586314152,0.02330156290649974,0.021615701546687953,0.019736570216946824,0.017836872146044163,0.016157202104411048,0.014860570832103898,0.01402731408110019,0.013646011940971377,0.013574370463048144,0.013723384285836138,0.013982061516323188,0.014268777931317658,0.014539189409905305,0.014727719957596024,0.014876024915801358,0.015027023619520186,0.015213073875147708,0.015432366878839232,0.015588895950020996,0.015637641880289172,0.015547840806073463,0.015321839016098036,0.014997797886732564,0.014588425331985419,0.014210083706836827,0.014002597226604954,0.014094754242525289,0.014563228894625895,0.01534713817465722,0.016395111495103434,0.01762489674561924,0.018944383840527785,0.02026851432024784,0.021445932826092345,0.02252641657893404,0.023575433404495857,0.02469294863317071,0.02597379974586978,0.027351536484289656,0.028940434964822896,0.030723265447071876,0.032644787205977584,0.03462656308749435,0.03646459721595138,0.03821733817211219,0.039902192914194584,0.04157000365448743,0.04327932642911892,0.0449450279577558,0.04669583800272662,0.04855224177239885,0.05050807953632175,0.05253028542361201,0.05444403982936934,0.056309852543219956,0.0581341535109988,0.05994590652427769,0.0617812444181051,0.06354732673900024,0.06536353228772426,0.06726811613904041,0.06928058526038254,0.0713889065365778,0.07342869509705269,0.07543593641884654,0.07737882017310167,0.07923655017091008,0.0809965686550505,0.08253645129882509,0.08395926042161547,0.08531307791317139,0.08665013158566098,0.08800913243093356,0.08929209804554304,0.0905988174350544,0.09196246665463935,0.09342309985768783,0.09502169620681661,0.09668011848071395,0.09851994240084007,0.10058089796352844,0.10286995703767353,0.10534032899852548,0.10776935692283306,0.11011687609245617,0.11226666227508718,0.11412922529123067,0.11565896179023437,0.11674139028738792,0.1175488194650134,0.11821532913038095,0.11888085264767387,0.11964637435719513,0.12042244219415427,0.12128259381681089,0.122162731306731,0.12297452708732381,0.12363378692415591,0.12396737204131059,0.12409119524265418,0.12408103613978164,0.12403973208172171,0.12405888585230539,0.12406372482670572,0.12416774226934199,0.12432963556780621,0.12446774288044776,0.12448398478045486,0.1241692056907321,0.12361035348144701,0.1228394321064583,0.12193185885402613,0.12098363350012613,0.11996410886742047,0.11907446123721879,0.11836506107728188,0.11784400478282242,0.11748328221979742,0.11711378614725258,0.11681785333957569,0.11656251442617684,0.11632170909640609,0.1160779524041922,0.11529851762460806,0.1145215947222233,0.11401736666444195,0.11403580334502361,0.114672622588587,0.1148445917216492,0.11508939400034962,0.11539632767587289,0.11580868372514769,0.11638376282015853,0.11661400608264237,0.11692444373460557,0.11733357802527426,0.11777567932977093,0.11809490305173005,0.11798759621279523,0.11738493435465466,0.1161655940281871,0.11435137209512926,0.11213944680981233,0.10979997330246871,0.10784316619309178,0.10656575667670869,0.10606262734109961,0.10618399056789461,0.10651891468677388,0.10670762347823555,0.10630924073990966,0.10507993153793546,0.10309845803988284,0.10074718883412122,0.0987782854709442,0.09783144627255574,0.09828010454039224,0.10001292551187103,0.10229512063199438,0.10397721703795683,0.10352872469660584,0.09961863210355026,0.09172384396480421,0.0806934710455237,0.06926137583261525,0.06188135075131945,0.06444114296106605,0.08343476241773737,0.12474511000152627,0.19234802605707196,0.2868329108846128,0.40462873558431345,0.5378317622288916,0.6748400512202203,0.8018350772093235,0.9046025031354518,0.9708451950687658,0.9922287620400457,0.9658154908178822,0.8946140152659573,0.786918994213413,0.6549772656536144,0.51297633355977,0.3748149169605009,0.2521603558516403,0.15283668284107702,0.08027496210892014,0.03372390507949419,0.009130776183076306,0.000556682725941356,0.001401291711776328,0.005750205864295065,0.009258129445490242,0.0094838535484398,0.006003782152215391,-0.00033266572462134855,-0.007951773053622426,-0.015207646188513708,-0.02098120000837949,-0.02463162726275605,-0.026365106397533495,-0.026909924514046293,-0.02719023929020764,-0.028100304965302726,-0.02992889638691105,-0.03265878388427881,-0.03592019790655214,-0.03917283239190158,-0.042034154680756934,-0.0440795144263008,-0.04531066482755686,-0.045989127731544024,-0.0465071142110948,-0.04733558432197797,-0.04854913575523031,-0.0501479645912946,1.1299705160568065,1.1482910650110765,1.1341254951987325,1.0905822673958514,1.0239741118915906,0.9429371948984082,0.8568646038418888,0.7740515164445043,0.7013199966570897,0.6422753415811615,0.5975724381270774,0.5654381426727012,0.5423399508655633,0.5248530793783338,0.509551766471853,0.49398959975320833,0.4769756150565972,0.4582682462803745,0.4390572851967832,0.42044304958702894,0.4033992174756446,0.38851308744049323,0.375676861337006,0.36495328896886897,0.3556345235501755,0.34688290495739543,0.33798801364042025,0.32829837979005855,0.31821129893631467,0.3078773972490979,0.2975455085087914,0.2874629398403473,0.27750341524825295,0.26816102408171943,0.2591813733362404,0.25016874118983307,0.2407784432680653,0.2306347861202532,0.2204102866214126,0.21052444465426548,0.20154662250695274,0.1940939466957833,0.1884515820789243,0.18533738863302263,0.18458629861943393,0.18561445177605806,0.18755622304886482,0.18906490488011743,0.18996001830787815,0.18934746604483385,0.18650334695126844,0.18101849940194636,0.17234193496389455,0.16180447409473286,0.14974058128376241,0.1365255004607809,0.122652613541124,0.10837776670594525,0.09514266262184276,0.0833706465083008,0.07315490862357898,0.06428672768030162,0.05609907891965805,0.04852079537145277,0.04088785468034882,0.03263793709086898,0.023522047888801557,0.013516871697528106,0.0036508838437373696,-0.005281039019749762,-0.012466865093643639,-0.017242631902698514,-0.019425903359762152,-0.018679665626567823,-0.015495277061945055,-0.010723035887012936,-0.005365747184321948,-0.0005518445843028723,0.003342464009701218,0.0058756091401213385,0.006893762314900095,0.006511137534054622,0.004846725572150344,0.0026148335426901407,0.00018740956609446718,-0.0021723106352937735,-0.00432286177641447,-0.006454807539954032,-0.008351019206926637,-0.010207412704655586,-0.012343101892537813,-0.01515686108688356,-0.01929534467053618,-0.024783948115164316,-0.03173574499264307,-0.04001408695970631,-0.04919371981394225,-0.05886320966145894,-0.06785702005573568,-0.0752988554597764,-0.08052287469373488,-0.08323057854100095,-0.08386948202079648,-0.08262111376675824,-0.08020182287187033,-0.07737958287711684,-0.07477355704334057,-0.07302395847281654,-0.07176977701853032,-0.07059349246474046,-0.06893770470974751,-0.0663165355456802,-0.0628151212698657,-0.058196394921336554,-0.05269179840173971,-0.04668849496726779,-0.040605680100157665,-0.03512318471186245,-0.03007021762891279,-0.02524019161914491,-0.020287535436211226,-0.014894824654635118,-0.009296801444888841,-0.0032624645075992123,0.0031054862506364796,0.009620772191827078,0.016082612644170532,0.021936205024547673,0.0275485369556744,0.03328593786395205,0.03964045701612079,0.04706004994297619,0.055330834848453816,0.06482833754198178,0.0754686354670538,0.08698360135216805,0.09896110024659377,0.11044646368888644,0.12140368115245048,0.13173245706285092,0.1415026539049288,0.15086215055021135,0.1594551007853034,0.16775982258430233,0.1759997015742138,0.18435477524806201,0.19290974719175302,0.20116184073291696,0.20938652742788463,0.21768371920011007,0.22617943523313674,0.23495734383329475,0.24354447594658404,0.25218872900806344,0.2609607853791338,0.2699227598331149,0.27907403253583074,0.2878708461751861,0.29653345471086695,0.3051758648447779,0.3139924649386083,0.32319072123836673,0.3324683490521558,0.34224009519328785,0.3526818350446204,0.363857861899514,0.3756372487419172,0.38721921756189065,0.3984775678388126,0.4091217267530471,0.41899288150522757,0.4280837762454676,0.43607328675383833,0.4435738432845549,0.4510622025313453,0.45896228797142985,0.4674765055706894,0.4760106386755017,0.48457380244315246,0.49279606800908626,0.5003153740541261,0.5068692348959113,0.5118548160656132,0.5158278701920052,0.5192588041505724,0.5226862500129,0.5265185187260423,0.5303825260227905,0.5345668576423785,0.538822316740632,0.5428007024953256,0.5461678025561731,0.5482121378537588,0.5494084805050609,0.5500839852856889,0.5506728449842666,0.5515483087542987,0.5524433154628388,0.5537163341797918,0.5551361571416586,0.5563333262963595,0.5569288149524243,0.5562920432549335,0.5547937590808798,0.5526542328586884,0.5502216998382563,0.5478526343723173,0.5452120327844272,0.5430206546378108,0.541325922730847,0.540001934778949,0.5387764537922104,0.5364916200997146,0.5336573734356025,0.530270922326084,0.5264658988004604,0.5224620405568966,0.5178832944310979,0.513668845005559,0.5101363304796689,0.5075547355153339,0.5061476273215829,0.5056538079719981,0.5067496828351796,0.5094227093612546,0.5134439724844493,0.518359049183407,0.5231624205079372,0.5275874263657909,0.5307742965928207,0.5319384852202886,0.5305704710452311,0.5263141426490684,0.5200025701254908,0.5122675996221421,0.5038799312295812,0.49559284258986536,0.48773031537477407,0.4809401948464581,0.4748261652234071,0.46846734414109037,0.46061521413449963,0.4497597464320465,0.4352519487304021,0.41635079174707545,0.39297632646955405,0.36596926149409914,0.3370377229536073,0.3095098379764316,0.2868937071468367,0.27297152475066583,0.27132330885369876,0.28456637815181823,0.3144921507332097,0.3603690704908174,0.4191826959037022,0.4858172297713563,0.5534563622148582,0.6151365295537728,0.6636770195728876,0.6932408355243921,0.7003111506890137,0.6841386966136651,0.6474170271390292,0.5947353336536856,0.5321528326157999,0.46617135819914785,0.40257284609491256,0.3461362748170518,0.29911513296507714,0.2616164395009787,0.23203156570928204,0.20763725071750067,0.18591977539609555,0.16432578716942456,0.141190193112792,0.11602555715153423,0.08935622104973286,0.06300108339976215,0.03855247459215219,0.01731958537266859,1.9548593786413983e-05,-0.013503940941448661,-0.023535315616672325,-0.03135333245390236,-0.038416748529374545,-0.045929472832312274,-0.05473638421925863,-0.06435294294499416,-0.07425885520274829,-0.08368529185228747,-0.09187849425841095,-0.09862263631177874,-0.10336179159117793,-0.10649119769211941,-0.10874223553310418,-0.1109088216744983,-0.11387790003087847,-0.11745697411735458,-0.12153969198436208
0.8018350772093235,0.9046025031354518,0.9708451950687658,0.9922287620400457,0.9658154908178822,0.8946140152659573,0.786918994213413,0.6549772656536144,0.51297633355977,0.3748149169605009,0.2521603558516403,0.15283668284107702,0.08027496210892014,0.03372390507949419,0.009130776183076306,0.000556682725941356,0.001401291711776328,0.005750205864295065,0.009258129445490242,0.0094838535484398,0.006003782152215391,-0.00033266572462134855,-0.007951773053622426,-0.015207646188513708,-0.02098120000837949,-0.02463162726275605,-0.026365106397533495,-0.026909924514046293,-0.02719023929020764,-0.028100304965302726,-0.02992889638691105,-0.03265878388427881,-0.03592019790655214,-0.03917283239190158,-0.042034154680756934,-0.0440795144263008,-0.04531066482755686,-0.045989127731544024,-0.0465071142110948,-0.04733558432197797,-0.04854913575523031,-0.0501479645912946,-0.0519802142520393,-0.053841396030288015,-0.055687099718804256,-0.05737861897946778,-0.05902940405868363,-0.06082624504136444,-0.06291496138191766,-0.06563399195431367,-0.06821510412187172,-0.07034402139295233,-0.07169018696898742,-0.07198852673354729,-0.07171586536834898,-0.06998988891488934,-0.0672812999267532,-0.06427816241948428,-0.06160306287913205,-0.05990525069024758,-0.058535538670414104,-0.057054587771270544,-0.054835328857143026,-0.05121759902471681,-0.045761789787552985,-0.03814069389844889,-0.02845167572228453,-0.017153297431917992,-0.004989426187650935,0.007070264348814464,0.01822889009327092,0.027830239959647503,0.03551184987547541,0.04123874664941494,0.04519365377205125,0.04789736030733465,0.04993828606896999,0.05186337573312712,0.05405485936967635,0.0565804576083291,0.05939634275423677,0.06226563820573357,0.06486437809020752,0.06687097208993777,0.06796983135351516,0.06811960675758445,0.0674493793539061,0.06623705693461947,0.06482915779667123,0.06347255460732003,0.06245906569714911,0.061973786270296725,0.06209286569786278,0.06278734350340467,0.06386726725183897,0.0652368301778135,0.06682031339971245,0.06857490417135187,0.07046413364374028,0.07234521929398331,0.07415049249131521,0.07579244147449038,0.07716395115008234,0.0781409237840759,0.07852369202266395,0.07825970102861306,0.07740196446739256,0.07610293457815984,0.07458209749638717,0.07300292352325193,0.07163672414883289,0.0707362079165766,0.07049813348280082,0.07102327120869843,0.07221350673362084,0.07399550903600587,0.07623332637041075,0.07876276122766118,0.08140726417196827,0.0838916970090987,0.08616959128376349,0.08821202164500651,0.09005831053437682,0.0917912571352381,0.09337645320844154,0.09502283323396339,0.09681246540204613,0.09877662662433088,0.10088491282300328,0.1029232643281024,0.10491247808018815,0.1067754241141499,0.10846566862871626,0.10997856851076847,0.11122148759218792,0.11240043613832551,0.11361505935804307,0.114940511106518,0.11640040161759592,0.11783048893112352,0.11927549908952063,0.12064363391171525,0.12184575140683226,0.12282223472442336,0.12343977650148559,0.12387085155616372,0.12421928489301799,0.12459375093637062,0.125070033687817,0.12554916663470744,0.12610939873976618,0.1266651697635804,0.12710309805958894,0.1273178326512106,0.1271373092279448,0.1266845950878641,0.1260264230041038,0.12526152892153378,0.12449133540549259,0.12369192461095181,0.12301962815594389,0.1224798580235374,0.12204258644368982,0.1216648381597746,0.12121963907742445,0.12081068967459789,0.12046170013512847,0.12019869288979841,0.12003031731483614,0.11984083564851077,0.11968108531920452,0.11945901254939308,0.11906358834360647,0.1183957964698977,0.11730956859946542,0.11592080191151677,0.11428203950629946,0.1124778113082261,0.11060822239579064,0.10868501215917212,0.10691000870008138,0.10533314949748385,0.10397054641556215,0.10282064832168361,0.10179458848943676,0.1010156616939926,0.10047056844168252,0.10012126868163362,0.0999035202390164,0.09963957682900956,0.0993495851800902,0.09890018649262683,0.0981509341683065,0.09698639215634919,0.09525227683050738,0.09309118481647584,0.09056370988489076,0.08777169989157683,0.08484885401060546,0.08183472571155011,0.07902849686775665,0.0765437735723433,0.07443748065016355,0.07271131586486171,0.07119324818953177,0.06998133091511795,0.06899213093902186,0.0681317984396318,0.06731487108684368,0.06598462381171372,0.06461763688990818,0.06340341492848056,0.06250073570086495,0.06191842630882565,0.0605871291088209,0.0589618811208583,0.05700648327681629,0.05479343940481204,0.0524842056369516,0.049801195652161144,0.04736408155546992,0.04539705504858155,0.043988233870523884,0.043049984965077566,0.04226776044450931,0.041433271388364244,0.04023494664123271,0.038496462734288694,0.0362644043534826,0.03376622088488103,0.0315260464765495,0.02994987753478632,0.029276184726168695,0.029478823741887622,0.03022333602190578,0.031088986866446438,0.031518359558991044,0.031109599452742054,0.029799842276848662,0.027921995902497065,0.026266064777037912,0.025679844308922117,0.02686933569859644,0.030120860811809702,0.03508788487268511,0.04087282381843725,0.046039694139853524,0.04911517211776026,0.04917321685323439,0.04641592147619399,0.04273099743001275,0.041668826773530246,0.04824423663232302,0.06822557289465908,0.10702029467301026,0.16848349945427812,0.25353581872307035,0.3593622252034224,0.4791685377392396,0.6026709473892409,0.717434649677707,0.810540117202428,0.8706905517226258,0.89011150258382,0.865887764457179,0.800568286831661,0.7016245903622231,0.580240452399889,0.44946691410230194,0.3221304664699521,0.20906722007537432,0.11762345942886289,0.05108358675945541,0.008822325620783859,-0.012934069259696639,-0.019743485904963876,-0.01776550909662864,-0.012522641145304037,-0.008072625652824609,-0.006720513209503041,-0.008862179144136385,-0.013647397068794396,-0.01954203819556631,-0.02496757692643307,-0.028908418932226346,-0.03082655290120189,-0.030952407326192602,-0.029999817027780627,-0.028853165836098694,-0.02837060778782888,-0.028801653811058422,-0.03002365354956033,-0.03155001696356744,-0.03273875474576431,-0.03315784691084809,-0.032396116345870356,-0.030468180136262412,-0.027694559067215956,-0.024578712111454137,-0.021767084338667655,0.6151365295537728,0.6636770195728876,0.6932408355243921,0.7003111506890137,0.6841386966136651,0.6474170271390292,0.5947353336536856,0.5321528326157999,0.46617135819914785,0.40257284609491256,0.3461362748170518,0.29911513296507714,0.2616164395009787,0.23203156570928204,0.20763725071750067,0.18591977539609555,0.16432578716942456,0.141190193112792,0.11602555715153423,0.08935622104973286,0.06300108339976215,0.03855247459215219,0.01731958537266859,1.9548593786413983e-05,-0.013503940941448661,-0.023535315616672325,-0.03135333245390236,-0.038416748529374545,-0.045929472832312274,-0.05473638421925863,-0.06435294294499416,-0.07425885520274829,-0.08368529185228747,-0.09187849425841095,-0.09862263631177874,-0.10336179159117793,-0.10649119769211941,-0.10874223553310418,-0.1109088216744983,-0.11387790003087847,-0.11745697411735458,-0.12153969198436208,-0.12581646050452822,-0.12993914909058565,-0.13398731238376585,-0.1375590587623108,-0.14082737519227037,-0.1440888082195704,-0.14759882006801475,-0.15186776570592034,-0.1561082884338421,-0.15996442985091172,-0.16308401656371127,-0.16525849104544385,-0.1671015020884958,-0.16807898410285238,-0.16869929971390818,-0.16953357409046152,-0.17095397791871172,-0.17344846021935864,-0.1759425644508945,-0.17771780344881333,-0.1780875347953348,-0.17664946479197957,-0.17387390051676266,-0.16980416244589397,-0.16517642512136974,-0.16078468137047452,-0.15718968694306065,-0.1548612070342965,-0.15293946386592813,-0.15032462818311523,-0.14566554512207464,-0.13772990909414173,-0.12608672932895676,-0.11036573066618446,-0.09105192828588192,-0.06920623349387788,-0.04624925379200862,-0.024004641264129687,-0.0034371316010827135,0.01487442316784153,0.030938692573561005,0.04523140151012449,0.058136794748842306,0.0706670125103838,0.08360813341466611,0.09745331283608753,0.11226802976217376,0.12729848087213044,0.14210454069622305,0.1560527541113072,0.16858651166841937,0.17930465801422305,0.18760422414128172,0.19380629045969697,0.19841454501527606,0.2021273121636452,0.20565281437696453,0.20913935125191277,0.21321454590269115,0.2182567699381643,0.22449976076125064,0.23200097073970602,0.24022371093729541,0.249217508158052,0.2589521652963607,0.2693991530817243,0.2804318217511767,0.2913463239444947,0.30193983292885224,0.3119023724679938,0.32095610565316857,0.32886267276264736,0.3350614012095568,0.33974149508257084,0.3432502936475781,0.34610951165144105,0.34886234750406425,0.3515460492793494,0.3546584172369409,0.3584948570589773,0.3632264712590405,0.3688620222454812,0.3748575718687786,0.38121543751757503,0.3878607238681643,0.3947512692154751,0.4018201774956435,0.4085323326454913,0.41505904366043544,0.42147720925354476,0.4279688674740811,0.4347783327458058,0.44172111698602823,0.44937380653662173,0.4579750801679806,0.4675854271025098,0.4779985235131499,0.4883054206676221,0.4982488992789209,0.5072730986046879,0.514976915281057,0.521218714280494,0.525736942098397,0.5293863352595094,0.53282094918338,0.5366364717913629,0.5411678731590823,0.5459792196235218,0.5510464158688191,0.5557263221545216,0.5592863299451915,0.5611170320376706,0.5605607561088934,0.5580949694621096,0.5541960319516761,0.5495369113507669,0.5447977370021854,0.5401561133082794,0.5362832587385169,0.5331896434165349,0.5306766256313727,0.5284784419667002,0.5260687187206704,0.5238290887927933,0.5218412140329604,0.5202077331734654,0.5189619532018976,0.5176861760953477,0.5165280973294334,0.5150672984192971,0.5128290888693129,0.5094454644370953,0.5045005708120652,0.49856731378825425,0.49200054923030867,0.4852251589051924,0.4786149964710975,0.47211794452751327,0.4661414714876329,0.4604009362032929,0.45443526548778373,0.44778452850509975,0.439908158593027,0.43118800404163643,0.4217658523569992,0.4119148972032899,0.401971097033819,0.39199756684661885,0.3826178519330419,0.3737425451658261,0.3650582152642634,0.35615766556253825,0.34644169553947024,0.33616326187607687,0.325203632592319,0.31358664561657584,0.3015104898552336,0.28911359598659897,0.277265738090367,0.26623155855517733,0.2561078143208852,0.24686331414792892,0.23820820397651374,0.23042791581351732,0.22320720639572894,0.21617891654380003,0.20904383536854446,0.20137560967274828,0.19370805513678863,0.18609548576613305,0.17858811901823102,0.17122435658915997,0.1636449420311944,0.1564234535000847,0.1494720512424176,0.14263788767162633,0.13578311237227306,0.12850869275717272,0.12136692363969866,0.11434724098831515,0.10737764630557048,0.10034186815538612,0.09281797614784229,0.08517819186347247,0.07726166782129891,0.06894422788101078,0.0602367236658261,0.051089333396752555,0.04227929626401262,0.03409675382021116,0.02670878954349588,0.02013157917626609,0.01404338151389793,0.008599679179942468,0.003438122117350788,-0.0017922312169006427,-0.007288460914798487,-0.01319558777515846,-0.018964679398579695,-0.024433719886625592,-0.029602887351002572,-0.034708501005863056,-0.040372602034652226,-0.046926608636169674,-0.05506382786855459,-0.06525346684296349,-0.07744440073075928,-0.09105026657846578,-0.10423927759234834,-0.11495468657112928,-0.1209452706787357,-0.12018030045565552,-0.11150282700316366,-0.09419576084719844,-0.0690163300532586,-0.03786349293673947,-0.0035118197486564426,0.03058542821133699,0.061531276257387024,0.08665163947549623,0.10411773409666997,0.11315666095834262,0.11385796897839297,0.10774167002162194,0.09673656071230231,0.08304710872761448,0.06878013357218675,0.055390532002625364,0.04419878227124451,0.03558729692551168,0.029258972253192968,0.024403606186030876,0.019709107590724043,0.014413378101373534,0.007875190756323737,-6.571264784573262e-05,-0.009062643694516356,-0.01864924857557286,-0.027605812423389695,-0.03494037238198513,-0.039970930126606845,-0.042528893575063585,-0.043333893985565884,-0.04295419126488341,-0.04230055931555736,-0.04216258656309214,-0.042971071528274,-0.04501348572686651,-0.04735512878051806,-0.04877665409696858,-0.04787060706735828,-0.043413249481484416,-0.03510496385951266,-0.02257417064425738,-0.006280593988184003,0.012772833286766809,0.03320659753419573,0.05309780971738129
0.810540117202428,0.8706905517226258,0.89011150258382,0.865887764457179,0.800568286831661,0.7016245903622231,0.580240452399889,0.44946691410230194,0.3221304664699521,0.20906722007537432,0.11762345942886289,0.05108358675945541,0.008822325620783859,-0.012934069259696639,-0.019743485904963876,-0.01776550909662864,-0.012522641145304037,-0.008072625652824609,-0.006720513209503041,-0.008862179144136385,-0.013647397068794396,-0.01954203819556631,-0.02496757692643307,-0.028908418932226346,-0.03082655290120189,-0.030952407326192602,-0.029999817027780627,-0.028853165836098694,-0.02837060778782888,-0.028801653811058422,-0.03002365354956033,-0.03155001696356744,-0.03273875474576431,-0.03315784691084809,-0.032396116345870356,-0.030468180136262412,-0.027694559067215956,-0.024578712111454137,-0.021767084338667655,-0.019511148779393923,-0.017940271076598777,-0.016975332283310354,-0.01641866947714396,-0.016199078680462862,-0.016063741529363726,-0.01599344582890784,-0.016056158322630354,-0.01632692938567489,-0.017128397201133978,-0.01778276531549754,-0.018037963099496068,-0.017609043409371306,-0.016235189294205813,-0.0142971704957346,-0.010913384644363368,-0.006429486910892538,-0.0014285125854821973,0.0034942642927158077,0.007631903860283003,0.011387318885114036,0.014957783812650888,0.018737639709426955,0.02322371787963743,0.028811210721484362,0.03588786598654968,0.044547897096411826,0.05458215549397616,0.0654847022242528,0.07646119692533099,0.08675584670896164,0.09566795686336141,0.10272080971361591,0.10774568656886817,0.11083713905245306,0.11246018581858655,0.11323366640824892,0.11378769581320805,0.11460404910972521,0.11585167679379141,0.11749051734428916,0.11924211608430933,0.12070135126344302,0.12146241165058226,0.12119340314082856,0.11983002819855611,0.11754058608443847,0.11467376218473573,0.11165098954743102,0.1087945251541378,0.10637486684949266,0.1044816462316862,0.10303733510814843,0.1018395674442798,0.10057256918901392,0.09905600082461082,0.09719329164846524,0.09501309953578398,0.09264547847588925,0.09022851366926848,0.08797327449316444,0.08604231935981135,0.08453054013412299,0.0834513895074987,0.08271750932975958,0.08223612868970702,0.08190095130557414,0.08161875757975472,0.08132087891555466,0.08093055860503871,0.08047393415942358,0.07998859417494934,0.07953680847066164,0.07919036832361065,0.07896598857418023,0.07895809355051116,0.07918611736817827,0.07962647672336148,0.0802106600250978,0.0807865459903672,0.08129810113197622,0.08161191761757947,0.0816129511301561,0.08123095172658494,0.08040982496609692,0.07928336662263263,0.07790848270136763,0.07635041010851076,0.07468357262360527,0.07292899553028293,0.07130103197443427,0.06989667128473706,0.06880996067411162,0.06813619352062561,0.06787766004376557,0.06823448484817934,0.06920897874046959,0.07071416551056224,0.07257213587102741,0.07443065181959099,0.07611741775897599,0.07730418717531305,0.07768056153976524,0.0770080782214292,0.07506071966751517,0.07199685737388954,0.0679826724654644,0.06329412445219823,0.05828071563196997,0.05323128443629441,0.04861245707094132,0.04470037804636319,0.04166200848613878,0.03955335304251075,0.038266973491675585,0.037790228268322644,0.03796176307278216,0.03858765110357593,0.03946041782246892,0.04028898334745447,0.04095241506489474,0.04120480629864292,0.04077101047237443,0.03936748260242709,0.03665775811817047,0.032591900146684574,0.027162988074121444,0.02055442460336491,0.013162341638070863,0.00548816176839961,-0.001640435040821316,-0.00748485223933382,-0.011419368753852856,-0.013042799326285368,-0.012342721403394527,-0.009421611117672441,-0.004768772455267473,0.00093903638869762,0.006971796165231299,0.01259798883306894,0.017478096273649782,0.021426404186100458,0.02450785129042388,0.02698639165674796,0.02915126196574571,0.031482429508214595,0.03426926755154859,0.037630788582209224,0.04148843559998164,0.045489461634787225,0.04935840913813464,0.052660572563328935,0.05497938720338934,0.055990479543215316,0.05541627116076604,0.05338515079045733,0.05009678493511975,0.04590133107722105,0.0412525461417831,0.03653354925414517,0.032347281312846955,0.029117076863987373,0.02713250101553492,0.026514612740350888,0.02708318366806561,0.028761965165167522,0.031284075356616,0.03433285977010671,0.03758429323940469,0.040250932139407704,0.04257990043354916,0.04467000035327387,0.04667322273357558,0.04865397373845849,0.04962662290512503,0.05011141916250124,0.05019843786005253,0.050067685360822366,0.04993918200229526,0.049543647824624795,0.04937422266308204,0.049597915131469286,0.05025461582797053,0.05122439026613203,0.0522146357092132,0.052935371812065465,0.05314783265909828,0.052773136285600424,0.05194080600208843,0.05093428404065248,0.05020222629530744,0.05013901494581813,0.05096970562697311,0.052657221738044824,0.05486130022555476,0.05712933260036382,0.05894790680223913,0.05996663973348205,0.060153401281051705,0.05982412533410632,0.05969838000687842,0.060580175128055684,0.06314051360699861,0.06764958082405859,0.07375394133766482,0.08058071594896984,0.08676361116045954,0.09089996361732217,0.09210455466115204,0.0905669369086314,0.08809686755096167,0.08817458656668542,0.09575103517725926,0.11655952849824551,0.15602499681489135,0.21802728695339268,0.30358773337463013,0.40999754031872443,0.5305299254047297,0.6549051516244313,0.770573376607659,0.864460434527658,0.9250846411381702,0.9445003223112137,0.9196893011457689,0.853155339316607,0.7524373443203805,0.6288711669630241,0.49571452769214863,0.3660409548033447,0.2508698085689971,0.15769912969649946,0.08991115587778566,0.04692873307308364,0.025019571262165485,0.018567946102371106,0.02132592405057403,0.02764354921940703,0.033307915390347685,0.035887373174418216,0.03480273956371057,0.030757208065324428,0.025194755056213592,0.019687097707611727,0.015376447092258895,0.012923953946084346,0.012243461997914325,0.012735206353393938,0.01356683495991015,0.013902341881042618,0.013362655956809919,0.011881980221515114,0.009746128550063965,0.007446572212208573,0.005414599352524376,0.004090331417334101,0.0035664279241559267,0.0036731522481257377,0.004066944080966916,0.0042877828455633975,0.004141764282302279,0.08665163947549623,0.10411773409666997,0.11315666095834262,0.11385796897839297,0.10774167002162194,0.09673656071230231,0.08304710872761448,0.06878013357218675,0.055390532002625364,0.04419878227124451,0.03558729692551168,0.029258972253192968,0.024403606186030876,0.019709107590724043,0.014413378101373534,0.007875190756323737,-6.571264784573262e-05,-0.009062643694516356,-0.01864924857557286,-0.027605812423389695,-0.03494037238198513,-0.039970930126606845,-0.042528893575063585,-0.043333893985565884,-0.04295419126488341,-0.04230055931555736,-0.04216258656309214,-0.042971071528274,-0.04501348572686651,-0.04735512878051806,-0.04877665409696858,-0.04787060706735828,-0.043413249481484416,-0.03510496385951266,-0.02257417064425738,-0.006280593988184003,0.012772833286766809,0.03320659753419573,0.05309780971738129,0.07134772842856665,0.0870931863334004,0.09992717314416914,0.10982644454987586,0.11664763606342812,0.12106828829123452,0.12380891142133535,0.12564752528308298,0.12729294565474483,0.1288790711312007,0.13113107266257748,0.13442389949199662,0.13896835069207733,0.14475944675961386,0.15111031845418754,0.15805376458433026,0.16525962565643237,0.17243636404460663,0.17939329375193233,0.18565208332907224,0.19175171881660297,0.1981535569138573,0.20541408909149197,0.21402714074425083,0.2238628735939749,0.23529071252819075,0.24818941353649632,0.2621945657850408,0.27674360196349174,0.29077686228090305,0.30405835165798223,0.31642865068279574,0.32807236438815346,0.3394600631827327,0.3508186453888943,0.3630754588506048,0.37683677109482977,0.3923579151211562,0.4093747259482669,0.4267008049595174,0.4434103176111245,0.4583290682622802,0.47047864886857005,0.47928938871380106,0.48437672317298125,0.4865165039624713,0.4867899179405133,0.4864482937722224,0.4865535340074697,0.4873225516605506,0.489044774016448,0.49126581549282183,0.4931694877183477,0.49381767930113835,0.4920376008218744,0.48777856844674666,0.48122054982710694,0.47300087778629646,0.46403905339272045,0.4549712742656406,0.4469784471302357,0.44070817161947623,0.4364734480516994,0.4342604274843025,0.43349836800716607,0.43409145556554035,0.43563618759796124,0.43773491983478596,0.4400215531651136,0.44189150723711906,0.4434290310417336,0.4445448859102471,0.4452736824691029,0.4457826788459247,0.4460767287986102,0.44681279512787647,0.4482918018568853,0.45063873881200367,0.4537280657379437,0.4568986600101111,0.45991614658839247,0.4621010681176372,0.46282375076269866,0.4616734526299626,0.4582994348519408,0.4533547280853094,0.44733324803156027,0.4408063183273622,0.43429092568892513,0.4278537936244764,0.4220783303526272,0.41685305834371555,0.4118959797860076,0.4069083987478876,0.40139821183889807,0.395856766673932,0.3903704259146501,0.3850505350750299,0.3799792511389929,0.37483198833604386,0.3699745784694786,0.36505730619494803,0.35958238752535715,0.3530501035300982,0.3447788037762053,0.3351764892579201,0.32434438142671207,0.3125746989488247,0.30032218627917867,0.2878317132735011,0.2761045343008929,0.2654699054015005,0.2560091369041367,0.24759426902825915,0.23969635058729327,0.23244765292646774,0.22550562102709515,0.21857119041747902,0.21147179747793107,0.20389073160741827,0.19641562968886986,0.18916206487297954,0.18216304129666436,0.17534932592760294,0.1682241255444645,0.16108534329995358,0.15370444481440731,0.1459007118098,0.13764888729138586,0.12877475687860912,0.12018331880556639,0.11231252553481745,0.10551072674184196,0.09994844865516879,0.09518545374646882,0.09149993243076916,0.08844752806711151,0.08551428553589412,0.08229534986885638,0.07822817183367528,0.07401423513415648,0.07004414474067075,0.06678411087066455,0.06464225108254398,0.06342236016001335,0.06367721705447592,0.06517830689855258,0.06749224503571362,0.07011204740563197,0.07213187130197356,0.07380144994300425,0.07498484687520492,0.07560509314693022,0.07558184372871997,0.07431273257510645,0.07221084266392003,0.06919706456209773,0.06527700714711748,0.0606352716809265,0.05523591560218335,0.050251480212239685,0.04652056515077207,0.04482076186477356,0.04568869963313303,0.048853445729757215,0.054551519132756306,0.062261923928162606,0.07122597027535016,0.08061279513053284,0.08911658811860013,0.09682566640941137,0.10368229321169836,0.10984589925280991,0.11553689062793263,0.12018480296944271,0.12448646186740586,0.12857535120147984,0.13253843845222327,0.1364358155522934,0.1396875307807403,0.14302040153772252,0.1468254884912405,0.1515047230921076,0.15733474047665416,0.16378545819024312,0.17120305618912177,0.17941803435334705,0.18817089527073613,0.1971552214489571,0.20554452521962263,0.21359714715698505,0.22139147547273125,0.22911635622366971,0.23697570242126006,0.24463189166408886,0.25255757759660363,0.26088063170686177,0.26966136131041346,0.2788574558653318,0.2878232366663361,0.2967252652526174,0.3053752990314295,0.31350725207698354,0.32073920930940353,0.3260933054884693,0.3295088714690141,0.3307727586256499,0.3299481745113722,0.3274650877480825,0.3237163392332676,0.3204758061568965,0.3196907282211157,0.3235612817470862,0.3341909661867614,0.3527209369449237,0.3802924943661608,0.4166598147920283,0.46029686669555137,0.5084218050055226,0.5568474323179414,0.6017869116988197,0.6394371888528642,0.6668999743513792,0.6826526438242838,0.6863625887169559,0.680021703557885,0.6664949264606154,0.6491918241732074,0.6313564872274416,0.6150848823893869,0.6020742552410991,0.5925320849761904,0.5856623803765727,0.5800603306305995,0.573859959782477,0.5662030335000738,0.5565578371358817,0.5450730574246994,0.5324549858440056,0.5193847975575616,0.5073144447598177,0.49719433766434296,0.48963404219629614,0.4848496410574118,0.482350014990747,0.4821311997457036,0.4836621027218489,0.4863106871357395,0.4894142738641948,0.49198995206501434,0.4939483320891735,0.49497234460263856,0.49494505035903,0.4939789066709778,0.4920356151131655,0.4900339259383368,0.488460527730664,0.4876333171840676,0.487593331622102,0.48773103121999967,0.4879088603698007
0.6549051516244313,0.770573376607659,0.864460434527658,0.9250846411381702,0.9445003223112137,0.9196893011457689,0.853155339316607,0.7524373443203805,0.6288711669630241,0.49571452769214863,0.3660409548033447,0.2508698085689971,0.15769912969649946,0.08991115587778566,0.04692873307308364,0.025019571262165485,0.018567946102371106,0.02132592405057403,0.02764354921940703,0.033307915390347685,0.035887373174418216,0.03480273956371057,0.030757208065324428,0.025194755056213592,0.019687097707611727,0.015376447092258895,0.012923953946084346,0.012243461997914325,0.012735206353393938,0.01356683495991015,0.013902341881042618,0.013362655956809919,0.011881980221515114,0.009746128550063965,0.007446572212208573,0.005414599352524376,0.004090331417334101,0.0035664279241559267,0.0036731522481257377,0.004066944080966916,0.0042877828455633975,0.004141764282302279,0.0034761669643366857,0.0022896468074308494,0.0006873159497252579,-0.0012710340641280088,-0.0033624456874327725,-0.005568990298954585,-0.007933879602543626,-0.010493279400172239,-0.013488918272861371,-0.016257261123373584,-0.018634342346558714,-0.020475476085302296,-0.021673874750069738,-0.022688764095837685,-0.022710844820146608,-0.022105070240518096,-0.02139335521585389,-0.021023987610871604,-0.021433819941186375,-0.022000643376431622,-0.02234975217995028,-0.02198157616553927,-0.020374100471673474,-0.017115636027987862,-0.011956509227584247,-0.004977850655788604,0.003434003609176506,0.012642133201755232,0.02185732528322743,0.030313879375206867,0.037340566022023895,0.04250062462921561,0.04565836687518393,0.046978240657849266,0.04688578295618002,0.04592311801570164,0.044637793093921484,0.04346764532213373,0.04265472509766179,0.04224237315749676,0.042068298167466794,0.04184918765610567,0.04127692376908351,0.04010270449506851,0.038232011506849545,0.03571779381577772,0.032749129227112386,0.029595371006930483,0.026520687207712158,0.023755862371682826,0.02141764206801876,0.019504306812616962,0.017913818244777453,0.01646943853553439,0.015023260061265711,0.013464141517389998,0.01175441285188743,0.00993051881483532,0.008070328990996642,0.006280871077441526,0.0046509046520560844,0.003216918971719569,0.0019472193848931883,0.0007459448583984135,-0.0005195985360133982,-0.0019546098322916552,-0.0036120552554987644,-0.00546993951871539,-0.007434886671003318,-0.009348486415752599,-0.011008877797149572,-0.01222931306962486,-0.012887098422323967,-0.012967485923698455,-0.012547328175117712,-0.011770533125336626,-0.010817584436517822,-0.009861492947751087,-0.009063015009529527,-0.008432686675119302,-0.007925875559188162,-0.007436297276516687,-0.0068358874731782055,-0.006080231765709171,-0.005043528871923017,-0.0037362135265030143,-0.002234596850227531,-0.0006545933670807787,0.0008136980673157865,0.0021633050583435673,0.003372000292464821,0.0044704055990106295,0.005526700739016649,0.00654247366324254,0.0076747299165116295,0.008979075970887084,0.010465474327559577,0.012093856575611085,0.01370531919116679,0.015265585946763539,0.01667287607878902,0.01783125908112742,0.018661012412205524,0.019038283023597526,0.019015998058255136,0.018647790429274672,0.01803334818708223,0.01730342898187626,0.016194491931864195,0.01522612096226709,0.014723812745945801,0.014943920801514781,0.015945845551547,0.016775723194015546,0.01768305743247267,0.018540245231624328,0.019309979340906246,0.020034111081000092,0.020378378702548973,0.020772231128000657,0.021439956232255437,0.02254517768294891,0.024122376610453182,0.02598383114123643,0.02796326982171457,0.02985185627088535,0.03151275705531395,0.03293423614217282,0.03417411174336537,0.03548552421423655,0.03710919429411753,0.03919926061268774,0.04174609567389247,0.04451054327681996,0.04721897995036625,0.04957523122886419,0.05140649059415983,0.05275246428795397,0.05384568409930679,0.05514949381640387,0.057120122790526195,0.06002546894270274,0.06375883290201546,0.06771391903222397,0.07091482439165868,0.07217296834842313,0.07048711735756298,0.06551712434233514,0.05801895164812829,0.05023503858409892,0.04586492909416683,0.04976903814915423,0.06727541578265482,0.10316305288101471,0.1606017918783345,0.24003760730303467,0.33852100611366265,0.4495661994199134,0.5636689393172142,0.6695108439518112,0.7555561507453122,0.8118887110002292,0.8318569830571718,0.8132089954092019,0.758468176549229,0.6744677501817494,0.571175732769461,0.4600288753411696,0.3521313767825912,0.25663853871854686,0.17964166556209624,0.12372862349163066,0.08820076762516739,0.06983444025884368,0.06391062280625498,0.06532362376642864,0.06954023141146103,0.07323431126233584,0.07451814295348408,0.07292986045139925,0.06898171180563407,0.06372109249337096,0.0582678548995043,0.053404194166355216,0.04959055184029782,0.04676679329989761,0.04454597289661673,0.04242031843338477,0.03989427769754434,0.03686079085037735,0.033409870727716465,0.02984771039267234,0.026572781967265237,0.02384687528506069,0.021950375897435814,0.020852782098665902,0.020323971982051194,0.02001981596341633,0.019506195593244662,0.01863592481309168,0.017309001185867246,0.01555250157463748,0.013466849959567425,0.01106669926110963,0.008520861600950447,0.005841632602435751,0.0030052925181853173,5.201568892686068e-06,-0.003367945730626525,-0.006514279228990794,-0.009293673104306486,-0.0116149463401987,-0.01345644682178205,-0.01533832282980547,-0.016634589391659,-0.01772940484739665,-0.019081337629207606,-0.021001298303355162,-0.023735592833309886,-0.026469592661897412,-0.028616896993106468,-0.029511374532362456,-0.02854614978492827,-0.025365333079608886,-0.019777344938451902,-0.012042459388603911,-0.0027512596736989615,0.007284207101388173,0.017140566912719462,0.0260935516515965,0.03355393974945137,0.03922260494944399,0.043114563987704614,0.045486583757569005,0.04685264285455909,0.047711524641221484,0.04848632029564884,0.049446496293939095,0.050650330292154024,0.05206788850780809,0.05351939040152284,0.054803230241894395,0.05577842860017356,0.056390743977267836,0.05677215069302827,0.057104546757746316,0.057581374751969776,0.058327593174547075,0.059310835384567315,0.06039334425272021,0.061268944041941435,0.06155341676580656,0.06087675774892058,0.058956825673595566,0.05573960022586717,0.05136144489350729,0.04614835886734519,0.04055078451575205,0.5568474323179414,0.6017869116988197,0.6394371888528642,0.6668999743513792,0.6826526438242838,0.6863625887169559,0.680021703557885,0.6664949264606154,0.6491918241732074,0.6313564872274416,0.6150848823893869,0.6020742552410991,0.5925320849761904,0.5856623803765727,0.5800603306305995,0.573859959782477,0.5662030335000738,0.5565578371358817,0.5450730574246994,0.5324549858440056,0.5193847975575616,0.5073144447598177,0.49719433766434296,0.48963404219629614,0.4848496410574118,0.482350014990747,0.4821311997457036,0.4836621027218489,0.4863106871357395,0.4894142738641948,0.49198995206501434,0.4939483320891735,0.49497234460263856,0.49494505035903,0.4939789066709778,0.4920356151131655,0.4900339259383368,0.488460527730664,0.4876333171840676,0.487593331622102,0.48773103121999967,0.4879088603698007,0.48737962087490583,0.4853546509328876,0.4812077565732261,0.4743469676657568,0.4652851305225372,0.4544863969262757,0.44263750438909516,0.430502026947261,0.4184239801067234,0.40739266773139876,0.3974935496812009,0.3884571616132238,0.37979629732129583,0.370595574707964,0.36107429438774385,0.35087817742947675,0.33983874598593034,0.3280665224627049,0.3156359689896269,0.30375214468349665,0.2929858935615778,0.28376487299864983,0.276336747604114,0.2704771693708571,0.26656135891115323,0.26414243086086653,0.262582295024437,0.2612168757767418,0.25925238743740187,0.256849070441217,0.25382953688888543,0.2501870815034645,0.24609700394936962,0.24164369393179957,0.23763070448370566,0.23426340565847137,0.23154049604849822,0.22927574135262183,0.2269131771006957,0.22451218766756298,0.22158926555421346,0.217677221096886,0.21245447875587406,0.20558573437207467,0.19767835293025438,0.18898901195405585,0.17983399612158216,0.17055587883929993,0.16122286079156178,0.15250759340718037,0.14437853857691343,0.13656651870585448,0.1286572789227258,0.11996062471609979,0.11058475651921965,0.10028715231096423,0.08902503663744384,0.07702996030091257,0.06457308265509872,0.05271937244927189,0.042048003489207356,0.03291841576526938,0.025402641679099332,0.019083112480349374,0.013872832390976465,0.009152915199075068,0.004316244560312369,-0.0010317607322244122,-0.0071337502676791995,-0.013356838797390832,-0.019182918006010026,-0.024041845013646663,-0.027466163143548154,-0.02940302045875036,-0.029624286449525028,-0.028510177629820676,-0.026653818928253047,-0.024681839059271803,-0.023278129367630976,-0.02238703734678151,-0.022000465963413953,-0.021929959236493234,-0.021897514974995452,-0.021852416766192637,-0.021344075973109597,-0.020378721750349386,-0.019116746532117715,-0.017786946730053366,-0.016818000137031615,-0.015996199281041578,-0.015281942635402009,-0.014557582924642003,-0.013676378485111274,-0.012771937384152691,-0.011479872490140606,-0.009816724310780378,-0.007886876525233249,-0.005837503710795338,-0.004065118365698516,-0.0023732924075058645,-0.0007825716164695552,0.0006909243322835251,0.002001371063520598,0.00279748944421737,0.0032357859600778017,0.003261953377365259,0.002878469132516831,0.0021795893203710635,0.0008345235491723367,-0.0003444503447475979,-0.0007828999380943501,3.221197643709327e-05,0.0023578075772215327,0.005263952414798249,0.009013061832106454,0.013321579093628886,0.017915046757251897,0.022572851499333562,0.026549839412448453,0.030295268756938987,0.03407814980544897,0.03818866887879387,0.0427878954214456,0.047437374356227184,0.05219070706887725,0.056873217894130086,0.061359737459795595,0.06562822554323564,0.06945652811329489,0.0733052467548598,0.07756279789365098,0.08256795057580328,0.08846855566502568,0.09488894657402368,0.1016959619190391,0.10856363132074585,0.11522675325119006,0.12157639811966368,0.12745398321236082,0.1333261815278117,0.13963987311764137,0.14674612898849332,0.15468424057430175,0.16280936528704518,0.1704835728174834,0.1767517980619161,0.1807743706844923,0.1822135947910247,0.18137172659486753,0.18019070407113646,0.18175222128627344,0.19012538569996837,0.20974294900774773,0.2442712418090473,0.2964203526647249,0.36650638337801195,0.45203867679290777,0.5476305622696506,0.6452494363134764,0.735941478839009,0.8107044618079258,0.8621021888077456,0.8855181755315533,0.8797103368989432,0.8475389615403501,0.794912366265651,0.7297459021415871,0.6604844829432756,0.5944630019250506,0.5373149600577141,0.49193836611820846,0.4586014593973556,0.4354507903549977,0.41920958915169093,0.40659217533807096,0.39473143692722834,0.381814619012745,0.3672428192450385,0.3513341760205559,0.33534686721657314,0.32062963189054966,0.3083147785904914,0.2990348481350793,0.2927085375606822,0.2889588294439153,0.28692826640505004,0.2856391477085496,0.28423428176407606,0.2820331621443722,0.2790587929338512,0.27557261449239806,0.2721317388229209,0.26943371539307276,0.26798072005540347,0.26840738512165957,0.27079975561477926,0.27483617751926376,0.2798433327948872,0.2847690397946251,0.28891357828337183,0.29149140925542993,0.2919889278377596,0.2902529501967017,0.2863184355532213,0.28092645173258307,0.2747000493261571,0.26823034984708516,0.26196104328004965,0.2558035123500585,0.250280084271365,0.24508017963736367,0.23971004593900272,0.23366913636339756,0.22614867818717338,0.21784609967481072,0.2087158533775239,0.19883614638438493,0.18846437877198827,0.17769001608629903,0.16761643429591846,0.1585400949129673,0.15049126875166466,0.14325962118057897,0.13625701078021024,0.12944606428716143,0.12236122999715407,0.1146557168471617,0.1062425134217961,0.09720625083612622,0.08839102387474014,0.08041747164538718,0.07387731909259221,0.06922540566301319,0.06659511546224506,0.06616090259121342,0.06750208024406733,0.06994395113453333,0.07272316872084297,0.07507972613072098,0.07675318226429056,0.07747280866809646,0.07721993774268636,0.07622093177867273,0.07481590347386391,0.07365469803828759,0.07304477810381259,0.07308649075388086,0.07366500524576003,0.07440610724391558,0.07508510628650554,0.07513112750508613,0.07396137149305546,0.07110907871284732,0.06623297121748914,0.059560633480278555,0.051277077132780145,0.04175328571225965,0.03152915632952696
0.7555561507453122,0.8118887110002292,0.8318569830571718,0.8132089954092019,0.758468176549229,0.6744677501817494,0.571175732769461,0.4600288753411696,0.3521313767825912,0.25663853871854686,0.17964166556209624,0.12372862349163066,0.08820076762516739,0.06983444025884368,0.06391062280625498,0.06532362376642864,0.06954023141146103,0.07323431126233584,0.07451814295348408,0.07292986045139925,0.06898171180563407,0.06372109249337096,0.0582678548995043,0.053404194166355216,0.04959055184029782,0.04676679329989761,0.04454597289661673,0.04242031843338477,0.03989427769754434,0.03686079085037735,0.033409870727716465,0.02984771039267234,0.026572781967265237,0.02384687528506069,0.021950375897435814,0.020852782098665902,0.020323971982051194,0.02001981596341633,0.019506195593244662,0.01863592481309168,0.017309001185867246,0.01555250157463748,0.013466849959567425,0.01106669926110963,0.008520861600950447,0.005841632602435751,0.0030052925181853173,5.201568892686068e-06,-0.003367945730626525,-0.006514279228990794,-0.009293673104306486,-0.0116149463401987,-0.01345644682178205,-0.01533832282980547,-0.016634589391659,-0.01772940484739665,-0.019081337629207606,-0.021001298303355162,-0.023735592833309886,-0.026469592661897412,-0.028616896993106468,-0.029511374532362456,-0.02854614978492827,-0.025365333079608886,-0.019777344938451902,-0.012042459388603911,-0.0027512596736989615,0.007284207101388173,0.017140566912719462,0.0260935516515965,0.03355393974945137,0.03922260494944399,0.043114563987704614,0.045486583757569005,0.04685264285455909,0.047711524641221484,0.04848632029564884,0.049446496293939095,0.050650330292154024,0.05206788850780809,0.05351939040152284,0.054803230241894395,0.05577842860017356,0.056390743977267836,0.05677215069302827,0.057104546757746316,0.057581374751969776,0.058327593174547075,0.059310835384567315,0.06039334425272021,0.061268944041941435,0.06155341676580656,0.06087675774892058,0.058956825673595566,0.05573960022586717,0.05136144489350729,0.04614835886734519,0.04055078451575205,0.035034733979498904,0.03003718249836061,0.025852345911743152,0.02259989149554791,0.020224811282583525,0.018522687085784105,0.017235464206924414,0.016112528223007606,0.0149658499881613,0.013700134701136318,0.012297164477133473,0.010832413579040861,0.009425898168689615,0.008188048565811963,0.00717545811968911,0.006346957606517084,0.00561793311808249,0.004883411606412208,0.004049543784659573,0.003068389227735159,0.0019197982451193145,0.000745179265332682,-0.0002745170344744725,-0.0009304573530491973,-0.0010386796642187907,-0.0005531006028932809,0.0006092627678708939,0.0023583089155474984,0.004514126668597488,0.006846680246632316,0.009046034814096696,0.011010859015487888,0.012631125161755833,0.013866343647308408,0.014732040157483422,0.01518716161603131,0.015399583260149818,0.01544981306168547,0.01540868450961936,0.015336610474903442,0.01518940168224152,0.015127004856013353,0.015209898928680363,0.015478615132720672,0.015941180792323463,0.016462793232536584,0.017097117425569613,0.01778266631925878,0.018457848442572155,0.019080697757649184,0.019542887862689713,0.019985487249848673,0.020507207749910918,0.021220732086932658,0.022220214722974897,0.023455587127561597,0.025012391604168703,0.026863555188989002,0.028941289694878986,0.031145778306575313,0.03325934814361459,0.03525762671197603,0.03707998357055832,0.0386914079446633,0.040071341890175735,0.04110297025447176,0.04186675295584577,0.04240758755403431,0.04279171604827232,0.04309803401934565,0.04330640394332024,0.04359296252764286,0.04408588370286287,0.044903120772492464,0.046124726148515566,0.04766591805376953,0.049577426405500835,0.05181476828878009,0.05429952491182573,0.056922529416851025,0.059446567196124164,0.061836305986752146,0.06402644200222178,0.06598816542369056,0.06772033268518649,0.06912999356961726,0.07034237740451856,0.07143076070257155,0.07247016393200705,0.07352005173653764,0.07450447199264527,0.07553692267136736,0.07665929242252621,0.07791071679787866,0.0793197707878888,0.0807853190453092,0.08240195577156362,0.0841842531033579,0.08612662548593028,0.08819011766873645,0.09020261277741157,0.092153978290928,0.09397446349590347,0.09561580696451465,0.09706046454958411,0.09824360850443846,0.09928784425053015,0.10027751237075168,0.10129107141837582,0.10237489313542164,0.1030360218390626,0.10371582318950395,0.1046187342806271,0.10592790108832704,0.10768932172125914,0.10882404945461036,0.10983815064621999,0.11077905782496869,0.1117693355228184,0.1129389533122115,0.11383586206372506,0.11484920634105697,0.1159885032480113,0.1171644771989516,0.11818858490316383,0.11872408377214369,0.11864462908554937,0.11785167079189761,0.11641406388962941,0.11457823791267996,0.11264857563409418,0.11111275057690434,0.1102848304619574,0.110279098879839,0.11096789092219607,0.11196868547519624,0.11292052246443375,0.11343066920979422,0.11329379997183095,0.11258783727301863,0.11163547572069421,0.111024341107706,0.11121669933719855,0.11238179700720126,0.11420778362384121,0.11580791049243074,0.11592905482791893,0.11309291128435114,0.10614832699477701,0.09485705448226023,0.08041702543755297,0.06590113838238248,0.05608588625726844,0.057089842886986306,0.07550632534067925,0.11716849900542932,0.18586872797091555,0.2819421633064515,0.4015368703638804,0.5365001803577472,0.6750627778636867,0.8033552826104718,0.9072523903309242,0.9746564619886499,0.9974940353748151,0.9730833008984465,0.904617056860755,0.8004543275659496,0.6727514322149287,0.5354509736933291,0.4020913567556671,0.28391088152296895,0.18832840329411543,0.11846431815546227,0.07340791201184323,0.049133880865714186,0.03987385885497947,0.03931924584760433,0.04189651886319518,0.04358007603674986,0.04218499171475621,0.037400450147646654,0.03007536629750716,0.02169017322712328,0.013752240061656503,0.00726937882701237,0.0027765018353520256,2.8462928578691363e-05,-0.00168305318333785,-0.003217567806063328,-0.005364244147872735,-0.00834248102672052,-0.012088420270191903,-0.016215504581736054,-0.020187375673783155,-0.023616641100192,-0.026098326066155027,-0.027657904761304645,-0.0285847021464966,-0.029303879553489648,-0.03030320166295621,-0.03172286511972732,0.8107044618079258,0.8621021888077456,0.8855181755315533,0.8797103368989432,0.8475389615403501,0.794912366265651,0.7297459021415871,0.6604844829432756,0.5944630019250506,0.5373149600577141,0.49193836611820846,0.4586014593973556,0.4354507903549977,0.41920958915169093,0.40659217533807096,0.39473143692722834,0.381814619012745,0.3672428192450385,0.3513341760205559,0.33534686721657314,0.32062963189054966,0.3083147785904914,0.2990348481350793,0.2927085375606822,0.2889588294439153,0.28692826640505004,0.2856391477085496,0.28423428176407606,0.2820331621443722,0.2790587929338512,0.27557261449239806,0.2721317388229209,0.26943371539307276,0.26798072005540347,0.26840738512165957,0.27079975561477926,0.27483617751926376,0.2798433327948872,0.2847690397946251,0.28891357828337183,0.29149140925542993,0.2919889278377596,0.2902529501967017,0.2863184355532213,0.28092645173258307,0.2747000493261571,0.26823034984708516,0.26196104328004965,0.2558035123500585,0.250280084271365,0.24508017963736367,0.23971004593900272,0.23366913636339756,0.22614867818717338,0.21784609967481072,0.2087158533775239,0.19883614638438493,0.18846437877198827,0.17769001608629903,0.16761643429591846,0.1585400949129673,0.15049126875166466,0.14325962118057897,0.13625701078021024,0.12944606428716143,0.12236122999715407,0.1146557168471617,0.1062425134217961,0.09720625083612622,0.08839102387474014,0.08041747164538718,0.07387731909259221,0.06922540566301319,0.06659511546224506,0.06616090259121342,0.06750208024406733,0.06994395113453333,0.07272316872084297,0.07507972613072098,0.07675318226429056,0.07747280866809646,0.07721993774268636,0.07622093177867273,0.07481590347386391,0.07365469803828759,0.07304477810381259,0.07308649075388086,0.07366500524576003,0.07440610724391558,0.07508510628650554,0.07513112750508613,0.07396137149305546,0.07110907871284732,0.06623297121748914,0.059560633480278555,0.051277077132780145,0.04175328571225965,0.03152915632952696,0.02117180092564118,0.011578956686806417,0.003303500296207628,-0.003291357145814837,-0.008050766053793403,-0.01111281565748929,-0.01249968981833489,-0.012612638983831791,-0.011950138313695739,-0.011013205216130997,-0.010319363437700294,-0.010030422467660746,-0.01041436664353571,-0.01168067663643015,-0.013975644378468592,-0.01745237762340635,-0.02196049589708372,-0.02740992248804159,-0.03361102829522354,-0.04025924209803423,-0.04704494055512147,-0.053389281386444304,-0.05889035058214183,-0.06329158463342427,-0.06654283981759986,-0.0689213043241353,-0.07064303224361164,-0.07210768210566246,-0.07367734369884281,-0.07556895548036616,-0.07794154492567787,-0.08042114711949809,-0.08261496743849428,-0.08410661904050301,-0.08459507114313247,-0.08419384492582166,-0.08285495027806938,-0.08087020326887462,-0.07861560209158325,-0.07643422061848425,-0.07477050739637305,-0.07340045959624383,-0.07208211352756912,-0.07047468902447973,-0.06827337009383604,-0.0656001023598043,-0.06223096345248527,-0.05829589781640971,-0.05402586036408768,-0.04967709871399006,-0.04574487822118071,-0.04206688354205534,-0.03851677163039977,-0.034902830016315514,-0.03108082733414409,-0.027343429285980495,-0.02357292873512856,-0.01986427783855142,-0.016310322951895207,-0.0129530076559154,-0.010080872135507183,-0.00724464813402241,-0.0040302095724493725,4.19531809611295e-06,0.005174812022313285,0.01118301786745464,0.018149989671124536,0.02584848383357058,0.033963918900907594,0.04216506269811587,0.04977642968047583,0.056992440616779105,0.06404509674516701,0.07131084589735387,0.07915531337391844,0.0873557882319287,0.09625584934124501,0.10587509906542242,0.1161014900340356,0.1266952890672413,0.13687891296074212,0.146676540359916,0.15607637115416576,0.16520488628308425,0.17423526476056417,0.1828305754531137,0.1913950932305117,0.20013200064503361,0.20918930100717573,0.21859175263385247,0.22774535225326348,0.23677690291944997,0.24565052816429317,0.2543728214598104,0.2629482405071408,0.27087464703970826,0.2784593107843978,0.28587343030567436,0.2933152752821632,0.30092708179702843,0.3082897500597517,0.31568757208034737,0.32320415800237523,0.33092659221393816,0.338905923086916,0.34669962754326117,0.35458441510943295,0.3626456016856355,0.3709485222344273,0.3794778840123133,0.38739479447270925,0.39516463655390077,0.40300148947399766,0.41120781546491164,0.4200498449377106,0.42862540357336854,0.4377733735433685,0.447759640604183,0.45873969997996655,0.47061897741739456,0.48223947221936797,0.49356149356208723,0.5040822030861108,0.5133787259835764,0.5211881098970785,0.5270106777614515,0.5314574702579739,0.5350794240988455,0.5385167677523719,0.5423018559703562,0.5463214618482817,0.5508497709751919,0.5555681464785573,0.559949415819665,0.5634156020436337,0.5652272764537729,0.565524736447021,0.5645031998174055,0.5626368004506076,0.5605484395678995,0.5585709866675378,0.5574226579001057,0.5571800642315058,0.5575053627455804,0.5576812770921652,0.5564906461486228,0.5532041340297963,0.5469160284495655,0.5371319604949032,0.524080467377768,0.5087622656680824,0.4938975345076493,0.48297350048794424,0.4803002978636277,0.49047965766337087,0.5174021313221615,0.5640661884294899,0.6307157489807615,0.7145589306794666,0.8096533135929495,0.9072101591645321,0.9973608518618591,1.0697247008743913,1.115461678484164,1.1288269695225281,1.10805092508711,1.0562279805526422,0.9798266965567631,0.8878359769472944,0.7901785109264032,0.6959343041262264,0.6125224930579511,0.5439148391208622,0.4908812022532554,0.45153005233027843,0.4221816657628804,0.39899413409097095,0.3780247130054356,0.35639521198160257,0.33271504484173087,0.3069741223829708,0.2807420825275092,0.2555942745035616,0.23298950032439153,0.21390003735318333,0.1985045232832973,0.18679486114197336,0.17767568828520292,0.16974000444125475,0.16169037751201032,0.15251859250468996,0.1423935695112746,0.13148478605363495,0.12029252703674918,0.1094807176708373,0.09947734535242246,0.09112811218194135,0.08435538622054745,0.07868775765373355,0.07345296071419824,0.06778210205597524,0.061630577061556294
0.6750627778636867,0.8033552826104718,0.9072523903309242,0.9746564619886499,0.9974940353748151,0.9730833008984465,0.904617056860755,0.8004543275659496,0.6727514322149287,0.5354509736933291,0.4020913567556671,0.28391088152296895,0.18832840329411543,0.11846431815546227,0.07340791201184323,0.049133880865714186,0.03987385885497947,0.03931924584760433,0.04189651886319518,0.04358007603674986,0.04218499171475621,0.037400450147646654,0.03007536629750716,0.02169017322712328,0.013752240061656503,0.00726937882701237,0.0027765018353520256,2.8462928578691363e-05,-0.00168305318333785,-0.003217567806063328,-0.005364244147872735,-0.00834248102672052,-0.012088420270191903,-0.016215504581736054,-0.020187375673783155,-0.023616641100192,-0.026098326066155027,-0.027657904761304645,-0.0285847021464966,-0.029303879553489648,-0.03030320166295621,-0.03172286511972732,-0.03362512743617881,-0.03591439869808354,-0.03842038343319615,-0.041069552347767234,-0.043716086766336995,-0.046419881762226604,-0.04930364420077468,-0.05245645806649794,-0.056149512398332074,-0.05964822306540724,-0.0626933328897979,-0.06503555838646075,-0.06649253269979974,-0.06755990098741184,-0.06740586355699588,-0.06649348491758243,-0.06546271971985895,-0.06485421487286022,-0.06518879684342715,-0.06573481934141844,-0.06600617181716774,-0.06537396490109086,-0.0632158970459207,-0.05913986906938362,-0.05288567034435836,-0.044636270488175124,-0.034910730691257275,-0.024462905976768232,-0.014192802105694473,-0.004788263315641953,0.0032107613343090595,0.009553404928778377,0.01429008509238424,0.017663637932256605,0.02018073456480604,0.022343627971695954,0.024570355976721744,0.027104438677608866,0.029912693693838237,0.032879880992680376,0.03573634368827571,0.03817211025866265,0.03991879226283349,0.04074865611808353,0.04069828182223439,0.03994400433165789,0.038776101823694044,0.03751758954801597,0.03637879883774956,0.035560530412765835,0.03512910506098898,0.03503057833014083,0.035116386833198454,0.035136716671055224,0.03494451318810353,0.034474189297418474,0.03376141164119521,0.03292021031213234,0.03203602119896193,0.03127550548268983,0.030775620324473955,0.030602457872336713,0.03072403379106622,0.030944054408110776,0.031111411689958787,0.031109982861996874,0.030890620215667693,0.030482154433564307,0.029911314584462743,0.029366725996423083,0.029092349834986538,0.029327660240451258,0.030240275076062383,0.03180075931193969,0.033962858168510524,0.03659930503465634,0.03953052321939333,0.04255505835815062,0.045392553939866076,0.04798528161801038,0.05034613958182515,0.05258533871139775,0.05486984164023886,0.05725829827752367,0.05998336083799058,0.06314136672328033,0.06673311457376165,0.07064978818283933,0.07456275959851814,0.07831859935753026,0.08167629748053294,0.08442898664491902,0.08642973472543981,0.08747866255833366,0.08772076159324285,0.08729633397584796,0.08641468979032348,0.08532101045042154,0.08414006360945316,0.0832271575019246,0.08281923417906896,0.08310655735974821,0.08421228617540327,0.086058386564,0.08871928561284688,0.09210468093127035,0.09604662525385559,0.10030483324248932,0.10446787592843072,0.10834845217028495,0.1117156322809713,0.11441681209667906,0.11639738030957536,0.11758454042898948,0.11822820971391633,0.11855679073652536,0.11880607199995058,0.11915880230499326,0.11958731063990155,0.12017911693634574,0.12085555241677605,0.12148454842718961,0.12192022430041115,0.12193574307508105,0.12157890269114059,0.1209001022625739,0.12001361443215239,0.11906112487676845,0.11806658264312286,0.11723331369029236,0.11663389725708276,0.11629427780035707,0.11620202545312577,0.11621632425980727,0.11640918122758855,0.11676142520997043,0.11725092459424702,0.11784172967123867,0.11837010578205504,0.11887748738622428,0.11928435329730065,0.11950802446295042,0.11948143388935158,0.11906460828097365,0.1183949677391258,0.11752759857041549,0.11653700754797011,0.11550315615391643,0.11439997494087424,0.11341052047458589,0.1125839369144722,0.11194932771437295,0.11152487841848129,0.111231756937478,0.11119746755097334,0.11142153963835963,0.11186976809312268,0.11246893416853287,0.11298948004134826,0.11345317795117388,0.11374144597898585,0.11375021054158231,0.11341298991858445,0.11256648635279529,0.11143678309499734,0.11012775566586845,0.10875415123628761,0.10741547204226515,0.10566856000403127,0.10405390314364191,0.10275848156752863,0.10189663627249025,0.10141795416594582,0.10019788636326449,0.09867390877197797,0.09681692834599206,0.09472298511428077,0.0925744706502721,0.0900904319638354,0.08786547078113366,0.08607301149327912,0.0847407804596165,0.0837309871345984,0.08270524567322658,0.08147133402527673,0.079768976796331,0.07749184104006386,0.07475170235186125,0.07180692090689675,0.06918657774320261,0.06724853494119877,0.06615011082297531,0.06577241756912411,0.06568963822518949,0.0654533139965221,0.06450483716957586,0.062488076872531294,0.0594275122193647,0.05576425793688725,0.052433513127258816,0.05040823920159414,0.05050202487096168,0.0530826068696053,0.05784622561257516,0.06391532768216582,0.06981258299340685,0.0739723577002948,0.07532897447885732,0.07390878271073119,0.07141095197203053,0.07117198262630807,0.07801556811816131,0.09757534208810933,0.13521508951894937,0.1948407007999739,0.27747590721265225,0.3804705519818652,0.49723948106889987,0.617733367005351,0.7297463635086983,0.820511872146378,0.8788172907246289,0.8969036200496903,0.8718159721191109,0.806029476300309,0.706880641410573,0.5854076465482794,0.45453572314919555,0.3270111600570273,0.2136592102633765,0.12183185778103736,0.05485445338376516,0.012167826248700728,-0.009926625421066308,-0.016904129929134787,-0.014909119830592975,-0.009494821869768287,-0.004786175365167437,-0.00317527360377134,-0.0051254658879947256,-0.009870739819067487,-0.015932062783393913,-0.021740176979035606,-0.026239428788313035,-0.02879169458970932,-0.029542759217812953,-0.02913589571049089,-0.028418737877873527,-0.02826621038097028,-0.028982151233537604,-0.03058413044552096,-0.03277108302992211,-0.03509729877671145,-0.03730237032798638,-0.039052045664120384,-0.04035848909807014,-0.04142458624517566,-0.04252369439962257,0.9072101591645321,0.9973608518618591,1.0697247008743913,1.115461678484164,1.1288269695225281,1.10805092508711,1.0562279805526422,0.9798266965567631,0.8878359769472944,0.7901785109264032,0.6959343041262264,0.6125224930579511,0.5439148391208622,0.4908812022532554,0.45153005233027843,0.4221816657628804,0.39899413409097095,0.3780247130054356,0.35639521198160257,0.33271504484173087,0.3069741223829708,0.2807420825275092,0.2555942745035616,0.23298950032439153,0.21390003735318333,0.1985045232832973,0.18679486114197336,0.17767568828520292,0.16974000444125475,0.16169037751201032,0.15251859250468996,0.1423935695112746,0.13148478605363495,0.12029252703674918,0.1094807176708373,0.09947734535242246,0.09112811218194135,0.08435538622054745,0.07868775765373355,0.07345296071419824,0.06778210205597524,0.061630577061556294,0.05462996738895318,0.046574573366774556,0.037425203757559186,0.02704690722391011,0.016038712789263956,0.004496382040824306,-0.00750723346758845,-0.019835627253328117,-0.03263018752715149,-0.04481091607594815,-0.056207389892476846,-0.06687729914174831,-0.07709645826421542,-0.08787339689539209,-0.09869069651034638,-0.11022338771550433,-0.12301884577190497,-0.13717625144929207,-0.1525770240843689,-0.16740169804499358,-0.18042144260571205,-0.19058083757379313,-0.19725604463436872,-0.20065916034548262,-0.20093803223862397,-0.19920517084135408,-0.19678696527865483,-0.1948212406214441,-0.19415700443794887,-0.19437124873875197,-0.1948161668216247,-0.19449818427931503,-0.19238643660851948,-0.18794651525351008,-0.18062863046271319,-0.1707407145198117,-0.15909387662774796,-0.14677137759189246,-0.13507628520661252,-0.12453029369519995,-0.11547422235390657,-0.10782061439980126,-0.10115631857526543,-0.09516166720450837,-0.0890367085957304,-0.08235389834688313,-0.07494445614131746,-0.06691821669260364,-0.05876019501897893,-0.05080186008954184,-0.043535678029596986,-0.037395076224544764,-0.03268011480994187,-0.029548999209636207,-0.027881277672509037,-0.02742705190364264,-0.027800737324131714,-0.028537112422335604,-0.029466453026192198,-0.029889275615173884,-0.029328709386538327,-0.027493524864006587,-0.024394110034729348,-0.020965035377832536,-0.017325378091263135,-0.013833588177952582,-0.010709668483390923,-0.007993982812749625,-0.005950710036066141,-0.003979745927447819,-0.001399084223956473,0.00253117876634541,0.008406144409230097,0.016287396124239642,0.026192094254101937,0.03787857525156911,0.050877277523801306,0.06454104267789576,0.07784698084979515,0.09026704477245115,0.10150983280149545,0.11157252676771659,0.12067594094656138,0.128824260083665,0.136654162406195,0.14482892505743286,0.15393940558358352,0.16428446795764287,0.17528541577932805,0.18645196224579652,0.19669029950657013,0.20445974284730026,0.20789299496872427,0.2046215902887199,0.1933949758903844,0.17369722421691747,0.14627278726358478,0.11329863302454832,0.07791314096677321,0.0452049229301539,0.020820619377558327,0.01040572103693787,0.018704271080372346,0.04825663324606741,0.10001840017173308,0.17207955670341,0.25989606656534425,0.35667945962547165,0.45373220327317865,0.5427466338069331,0.6160328729921609,0.667756634037522,0.694654648170571,0.6959394459376184,0.6744232088326191,0.6350981323272827,0.5844895863404909,0.5296076917199538,0.47653142533445314,0.4307968382203634,0.396022029917109,0.373951508862545,0.3645607352693366,0.3660013532247707,0.37621012262749,0.3925157804337095,0.4122490908975983,0.4330032930147022,0.4524160231520733,0.46939807611240014,0.4832332119691866,0.4937948165816952,0.5014458507600679,0.5065238368488857,0.5102920263911022,0.5137382177949984,0.5176385639781759,0.5223762256802301,0.5275043704367337,0.532876387945958,0.5377820806098826,0.5414586949620113,0.5433066006003923,0.54271984029912,0.5402013508344101,0.5362730050117708,0.5316359444902333,0.5269731106663251,0.5225219470383449,0.5187581329513958,0.5156718777211533,0.5130580405104563,0.510639620732258,0.5080159085231917,0.5052485841545563,0.5024496077144491,0.49980714423201866,0.4974622789098958,0.49511215691477745,0.49298924110222003,0.4907403260487805,0.487946147685087,0.4842849370875335,0.47924078902106226,0.4736635205621024,0.46779747912107683,0.4618905972250246,0.45614314287735236,0.4502579856414859,0.4447956855244756,0.43952798284215383,0.4340677726224283,0.4280013486671712,0.42064187450026946,0.4123846650090031,0.40336448372269895,0.3938636701251163,0.38423873086905375,0.37448018342188816,0.36530904016100646,0.35674000049145504,0.3485706864504319,0.3404761130709363,0.33181907697633534,0.32286374224469605,0.3134452025489027,0.30351885268625645,0.2932030693866832,0.28251975487566405,0.27228786148336215,0.26273947618812055,0.25396160093797054,0.24593002570243008,0.23836950278847327,0.23159980202398475,0.22537199640000574,0.2194004881653376,0.21345934513044013,0.20724119599959107,0.20112520241466475,0.19493678933640657,0.188363270658234,0.18098866455845022,0.17217260279267235,0.1619159911001464,0.14983206987108505,0.13575885594463846,0.1199614503348691,0.1030639126490254,0.08684588026762209,0.07295583432198166,0.06312845051798367,0.05893423611128797,0.06129257555147704,0.07102827778883015,0.08754902569905,0.10928359122387994,0.13389010079343602,0.15840563711784753,0.1803907154818829,0.1972642981737574,0.2070835006236811,0.20884596547558412,0.2024581708876925,0.18934833988099042,0.17125032074388613,0.15025524734711132,0.12847638998377253,0.10753846238982183,0.08901163285051827,0.07329696662473874,0.05999542565727958,0.04810681449196096,0.03614154047932857,0.02320870185049577,0.008411818172365302,-0.008564907485711757,-0.027325279586987935,-0.047056907231253144,-0.0658929368689527,-0.08222868243165866,-0.09475745196306272,-0.10275737366593682,-0.1065382219154783,-0.10643055901900911,-0.10361287184363735,-0.09948244280017333,-0.0953176556870872,-0.09235434900275839,-0.09052670208046248,-0.08958192999520424,-0.08892574519176498,-0.08787793770823758,-0.08632046063949032,-0.08360257897905317,-0.07973985740741998,-0.07502082045943867,-0.06989020580618115
0.617733367005351,0.7297463635086983,0.820511872146378,0.8788172907246289,0.8969036200496903,0.8718159721191109,0.806029476300309,0.706880641410573,0.5854076465482794,0.45453572314919555,0.3270111600570273,0.2136592102633765,0.12183185778103736,0.05485445338376516,0.012167826248700728,-0.009926625421066308,-0.016904129929134787,-0.014909119830592975,-0.009494821869768287,-0.004786175365167437,-0.00317527360377134,-0.0051254658879947256,-0.009870739819067487,-0.015932062783393913,-0.021740176979035606,-0.026239428788313035,-0.02879169458970932,-0.029542759217812953,-0.02913589571049089,-0.028418737877873527,-0.02826621038097028,-0.028982151233537604,-0.03058413044552096,-0.03277108302992211,-0.03509729877671145,-0.03730237032798638,-0.039052045664120384,-0.04035848909807014,-0.04142458624517566,-0.04252369439962257,-0.04400270011228723,-0.04573243275732707,-0.047514289820598216,-0.04902540707188503,-0.04995009002253369,-0.05026773355718802,-0.04984267665204834,-0.048901324213917026,-0.04779565816779326,-0.04686243625855057,-0.04663761669854013,-0.046510128561946425,-0.04622641655026652,-0.04543363317638932,-0.04377478249456745,-0.04156253302544061,-0.037844692175006946,-0.03295359611722067,-0.027494208709873978,-0.02210078232975051,-0.017533578018866354,-0.013387893477223302,-0.009453454136705243,-0.005307667363490621,-0.00042678216493357375,0.005576796753154849,0.013093482939460402,0.022190364497144576,0.03262580312918212,0.043872821817373474,0.05512356401776063,0.0656794156772617,0.07491547653400334,0.08244386109566038,0.08817242579968051,0.09221621246297015,0.09505093818589475,0.09724622174749406,0.09934833761795733,0.10174186187089865,0.10448612497194933,0.10751254324929688,0.11055230375562128,0.113258002175043,0.11531129794211677,0.11644281128417695,0.11668110802871003,0.11623550406938288,0.11544304332333385,0.11465633398893613,0.11407156358515652,0.11381447541237485,0.11384504848381777,0.11398985013350457,0.11400137003575549,0.11358670210364481,0.11260395743122259,0.11106554016374236,0.10912381080665035,0.10701521697135229,0.10493924931064505,0.10310748876346847,0.10166256929496313,0.10065204892452245,0.10002906390694906,0.09963284462047838,0.09933587596966974,0.09904535105883355,0.09871498758461549,0.09833863826428313,0.09788460148083028,0.09741799748098284,0.09700876396107883,0.09673131055726626,0.09664821262161721,0.09674019028387412,0.09706294063383292,0.09761508194699928,0.09836225806284599,0.0992327932666215,0.10005252332970217,0.10078862880310953,0.1013535654927697,0.10169628041752928,0.10181737391162579,0.10168463805634985,0.101504396135379,0.10137770513178676,0.10137459422681082,0.10151298125797752,0.10165890880745841,0.10184093475037202,0.10192290735965676,0.10175378027765253,0.10120858860432924,0.10012514455232172,0.09865026944963833,0.09685690691243014,0.09485622468259709,0.09277820948937278,0.09066106522980039,0.08873506215890815,0.08705008981496976,0.08560116484751375,0.0843478303744163,0.08315786220154628,0.08210501087951035,0.08114002450750318,0.08021595173818057,0.07929693076308526,0.0782919055983167,0.07730256705412254,0.07631235809587723,0.07529871431635825,0.07424603115175425,0.07309574266829147,0.07196824921339623,0.07088054816600849,0.06983970965734158,0.06884277537063968,0.06781201326866865,0.0668217408894587,0.06581571206426777,0.06471536527269306,0.06343951958952511,0.061857378562929596,0.06004220993000593,0.05799252065592063,0.05573884246884391,0.053349629798260016,0.05086026128915137,0.04850375055899023,0.0463978434660167,0.04463183660973766,0.04325974000699492,0.0422273539565898,0.04161950489711394,0.04136300852637897,0.04134459530124785,0.041433542812311284,0.04143026645334331,0.0413357338396687,0.04105219192115229,0.0404958286662718,0.03960734561762765,0.0382855032858888,0.03665508211255453,0.03475675016024507,0.032656483453533204,0.03044809890643306,0.028170876157087847,0.026053485344701872,0.024187485196110282,0.022608452564948433,0.02128885219523847,0.0200681342057204,0.018933892141947982,0.017762575254175902,0.016455493666295257,0.01497629526715862,0.013222417236716749,0.011496574461365155,0.010024368713766978,0.009028842176932343,0.008663738339078771,0.00873996817640005,0.009399859428951923,0.010528824854720205,0.011960083352026644,0.013510561959999263,0.014799582780654835,0.01592199832308185,0.01687241539266533,0.01767804871597526,0.018357385580919754,0.018688570421777413,0.018823894756200322,0.018766998839484843,0.018546008466033354,0.018224642841250614,0.017774680498622884,0.017438051391801924,0.01734175543774616,0.017561132034943267,0.018091900101581477,0.0188015629550343,0.019601955609705613,0.02033620342455562,0.020888468474330284,0.021231988559470165,0.021408798535873703,0.02164137420310354,0.02213030219202962,0.023028254027072072,0.02437207701735885,0.026010539993059963,0.027729476793814302,0.029184028763681542,0.03005477968021323,0.030184177684954506,0.029671882605108515,0.029046228102258417,0.029150731344009872,0.03108037065544198,0.035996278352550155,0.04485888706272642,0.05825464318192925,0.07611090065199752,0.09762802540484128,0.1213297039149194,0.1452501093292746,0.16730465335126668,0.18561742104215997,0.1988935483465178,0.20666312947728863,0.20934446625502667,0.20812963119872208,0.20465547650266866,0.20060317795774793,0.1972863460488814,0.1953360035383684,0.1945718401537232,0.19405184047633833,0.1923437870742416,0.18790956262047412,0.1795147846094747,0.1665593903159218,0.1492326999351079,0.12851364808063584,0.1059863813053418,0.08351657923104587,0.06295130084082427,0.045736826655234694,0.032719347720393845,0.024063199990209463,0.019275484144315284,0.017485450930080342,0.017576544761790255,0.018456870099758438,0.019254674203010993,0.019378247186174875,0.018719717168189567,0.017437449365297647,0.01588096977161123,0.01444614841581252,0.013365798003242793,0.012875118277359885,0.012972742488485536,0.013507882872843616,0.014240829335023823,0.014830746179320684,0.015159974180304264,0.015134181149088238,0.014744527589371474,0.014035510254235127,0.012975641970687435,0.011704974655495087,0.010274997482038204,0.008727875347040788,0.007111178638951709,0.15840563711784753,0.1803907154818829,0.1972642981737574,0.2070835006236811,0.20884596547558412,0.2024581708876925,0.18934833988099042,0.17125032074388613,0.15025524734711132,0.12847638998377253,0.10753846238982183,0.08901163285051827,0.07329696662473874,0.05999542565727958,0.04810681449196096,0.03614154047932857,0.02320870185049577,0.008411818172365302,-0.008564907485711757,-0.027325279586987935,-0.047056907231253144,-0.0658929368689527,-0.08222868243165866,-0.09475745196306272,-0.10275737366593682,-0.1065382219154783,-0.10643055901900911,-0.10361287184363735,-0.09948244280017333,-0.0953176556870872,-0.09235434900275839,-0.09052670208046248,-0.08958192999520424,-0.08892574519176498,-0.08787793770823758,-0.08632046063949032,-0.08360257897905317,-0.07973985740741998,-0.07502082045943867,-0.06989020580618115,-0.065223256907648,-0.060994345821013936,-0.05733000024285398,-0.0542751444340326,-0.0519024739041247,-0.050798269134378043,-0.05084267077796444,-0.05212201787696897,-0.054564586236541715,-0.05786464053829587,-0.06191620035864078,-0.06547403255224667,-0.06751613989965284,-0.06714243212652087,-0.06382680717246705,-0.058093146506478836,-0.04996252544985471,-0.04025044043097748,-0.02992190633782413,-0.019828140052739845,-0.010971185202406019,-0.0028887600480854113,0.005038937031913582,0.0137448135499702,0.024170527066987368,0.03648965215699736,0.0513087158191845,0.06846510732918266,0.08735563415274682,0.10706539249928644,0.1261223004219352,0.14403204358463842,0.1604879031032519,0.17563537439755733,0.1899602579315855,0.2036697590555113,0.21768175673842155,0.23262312603016827,0.24881077268748383,0.26611709971705666,0.28353811718152366,0.3005011096945855,0.3162676726274607,0.33028218864494874,0.3422739415025278,0.35187509872433154,0.35974984429682527,0.3666743299703011,0.37348475567825107,0.38081334830835156,0.38848807554588916,0.39661051942074516,0.40481860339547865,0.41258444421103074,0.4193527551141753,0.4242903672586955,0.42751604062084825,0.42932982104942996,0.43029896056614264,0.4310706133297495,0.4318311731017204,0.4331860873484115,0.43541472982817664,0.4386274290640278,0.44278847154532375,0.44744883846078976,0.4526786359109322,0.45847435980956264,0.4648346826677397,0.4716639551999661,0.47840219593743183,0.4849080372976058,0.49088335814360085,0.49611505402581235,0.5005394388546086,0.5039747617408781,0.50696099953735,0.5099731492769535,0.5134373840545956,0.5175571208892168,0.5219014696984082,0.5263317756084438,0.5302845260116882,0.5331756017212875,0.534574802923825,0.5340244566532483,0.5320619764875131,0.529191048291172,0.5260180627896593,0.5230642642494833,0.5202940046207799,0.5180847766560772,0.5161750790537816,0.5141373869750315,0.5115537255751414,0.5078466750560308,0.5034569066500232,0.49861469938423925,0.49364986594234384,0.48887070586095555,0.48414129294221586,0.4798620898214637,0.47574969095418446,0.4713470489699405,0.4661876861467696,0.4596700974120576,0.4521683416035931,0.4438162297288083,0.4348968261945634,0.42577706105845675,0.4165544714529109,0.40793250123904495,0.39996722037024907,0.392521738502206,0.38536643597014386,0.3780421071155749,0.37084356693004833,0.3636706082458958,0.35646407276183717,0.3492188762748607,0.34171977416826493,0.3344586167904464,0.32736975677324404,0.32029797429963003,0.3130713165795775,0.30530864866485147,0.2974439425118952,0.28943689437206765,0.28126138662733274,0.27294325071214404,0.2642994035923805,0.2559555592051035,0.24795966147670032,0.24027245499985772,0.23281518484471056,0.22522567769841745,0.21796813861441994,0.21093452379858696,0.20398785595581634,0.19702431374515758,0.18970338141955903,0.18256025769197293,0.17554142809946174,0.16850023897433067,0.1612334426456046,0.15321316451376205,0.1447995196049792,0.13585221919608656,0.12631455570456018,0.11629519802911979,0.10578968904083266,0.09573417395264071,0.08652099288222238,0.07838482475559166,0.07135695341263498,0.06497518406931321,0.0593806189869737,0.054103433313958976,0.04867730885853361,0.042812588488478756,0.03611475649065855,0.02943191640830904,0.023266258780090938,0.01810606604361304,0.014268223564322526,0.011287962068876964,0.009523666803117484,0.008562450908796542,0.007889182958514441,0.007061639066808251,0.0054451157363296886,0.00359271251856354,0.0018032907404347581,0.00045214481857898137,-0.00014494543070602377,-0.00015196693336071442,0.0007596245455408848,0.0023113550581641312,0.004097203623452216,0.005740697070958471,0.006710936884354331,0.007453994164309729,0.00826222949954497,0.0095306717565288,0.011626339572622966,0.01442686808030619,0.018345693212323228,0.023238162429478425,0.028796790763163743,0.03464469619384115,0.040102142288541955,0.045265126304655075,0.04999957236549693,0.0541892006906034,0.057663052815059346,0.059845067378034064,0.06072889072588216,0.06005453129039799,0.05771592274198228,0.05391496006138872,0.048975731983132494,0.04436296276970831,0.0417516902996596,0.04306763539064267,0.050166867307718084,0.06414590322374786,0.08597378066282292,0.11542155426620629,0.15116305525982776,0.19081883229026989,0.2308665953711684,0.26799894673322533,0.2988326452414531,0.3205883679971361,0.3314707972728217,0.33058450142669227,0.31894447299502987,0.2986010038041423,0.27249187590263824,0.2439719864291225,0.21601003027111262,0.19164416660408645,0.17298159297060814,0.16119185200986497,0.15647317558542329,0.15788115159950705,0.1643874673633513,0.17451664825773378,0.18674147423087353,0.1996522835739683,0.21175606554219037,0.2224321468352688,0.23123853256141214,0.2380242704814739,0.24283139156251332,0.24547534522864325,0.24645966570822822,0.246190064996207,0.24512454401998596,0.2437241863350047,0.2420684535852818,0.24086714303587092,0.2406159828094084,0.24176004629585976,0.24461698110749608,0.24894261559499928,0.2549820007414574,0.26256073438802435,0.27132100773970536,0.28073712356488956,0.28981167388536133,0.2982407599936512,0.3056385790066906,0.31183056682970706,0.3168572660222831,0.32058230454613784,0.32367250257690344,0.32663783429375687,0.3299217700805345,0.3337633949530548
