0.2743755909698914,0.35703186043447616,0.44935310604100037,0.5433908085137803,0.6304150705427262,0.7018093952797224,0.7505987404478194,0.772600026918461,0.7668374206336096,0.736323205588592,0.6868079917910279,0.6258205780239559,0.5612640365350168,0.49975407440082764,0.4465062933855983,0.40405779611500864,0.3724908440070385,0.3499280461515726,0.33298543332798053,0.31876902708250465,0.30478062074017803,0.2896062484232005,0.27298687936417,0.25514641393200127,0.23757618647745216,0.22149106532731003,0.20764291201445859,0.19604571257676742,0.18549754426032697,0.17523457096810077,0.1641615625820197,0.15156021973827968,0.13735670886174176,0.12177759658456985,0.10649730899124041,0.09323019241191748,0.08359263448053482,0.07866770514671606,0.07833467505942815,0.08235055040797809,0.08950348694850899,0.09823174781532736,0.10702478686246904,0.11450977820812686,0.12054075335971103,0.12543486244417373,0.13003234905448416,0.135381868578222,0.14220743402421673,0.15119272104088752,0.16226445325127484,0.1748138850678278,0.18790356544049266,0.20028920950687862,0.21174320996194573,0.22200538771969616,0.23132737857846714,0.24042526230276334,0.24988857786019722,0.2613369209155539,0.2751559396145952,0.2910710530493768,0.3082313908875531,0.3252044880980639,0.3412501115354953,0.3553180317002458,0.3668593636564821,0.37603751947234276,0.3836249691845842,0.39120179668880795,0.40002940399362413,0.4109063023981144,0.42386293954501797,0.43795646808647104,0.451793977978425,0.4632869405791604,0.4703984078407257,0.4716883596176931,0.4666185251925777,0.45602844239870055,0.441473483888993,0.4249847082093893,0.40853928618692215,0.3935071596821165,0.38051961368009646,0.36908631637406825,0.35792405351427664,0.34539021275615117,0.3299873219229485,0.31086871093509716,0.28796642582001925,0.2620714972049854,0.234632491870655,0.20736305933431437,0.1819446723251049,0.15944923743522202,0.1402202823420234,0.12387477098515884,0.10944223677185874,0.09586243526872683,0.08203520107902146,0.06723741551035368,0.051312416741683506,0.0346023227137921,0.01813301677397341,0.002877549835406607,-0.010374028425666608,-0.02124993750179183,-0.030037917010093826,-0.037157314385282726,-0.04359144030527575,-0.05034373079359642,-0.05808985020368459,-0.06706392940835182,-0.07640741679939501,-0.08504152229966477,-0.09163644403587443,-0.09492976290557734,-0.09420913732471768,-0.08890655838217228,-0.07958021774022346,-0.06745645002184458,-0.054134252275170915,-0.041432814065559535,-0.03030685814882535,-0.02169835365920841,-0.016055947120113455,-0.013338741644764488,-0.013359528428124351,-0.01504079870703832,-0.017780882216469392,-0.02109661187277876,-0.02461192046821518,-0.028223825653386044,-0.03127738677331482,-0.03360610315365012,-0.035140554894942576,-0.035885099291665876,-0.0360850180123434,-0.035546444070205296,-0.0345143899495841,-0.033293958850956075,-0.032157401096787615,-0.03163766836472086,-0.031276445582981253,-0.030824093202861596,-0.02996457203125696,-0.028429702901909354,-0.02667302983229853,-0.024173274817663546,-0.020900242274474363,-0.016920437935840513,-0.012412778884921673,-0.008409068749575282,-0.004630312370217836,-0.0012123127550126213,0.0016498780514930603,0.0036041451320660152,0.003237943834103202,0.0007653905626498197,-0.0037628638615681063,-0.009909670266968703,-0.01691098268125797,-0.02433960388511229,-0.030862365182178383,-0.03552144027062058,-0.03772787722147324,-0.03742611049458196,-0.035232368884887455,-0.031950982857596594,-0.02844903019301346,-0.025372282720499142,-0.022962187971377834,-0.021088949386957382,-0.019199882851555237,-0.016657428830660088,-0.013057060114990198,-0.008498265448173711,-0.0037044967430240297,0.00012917632914320629,0.0016718086147251667,-5.373125623281444e-05,-0.00516239110703048,-0.01251010053361792,-0.019651320193741672,-0.022985539683073326,-0.018349177170024437,-0.0018265167658872508,0.02941354619687249,0.07618441686461849,0.13702599513621624,0.20820775623362603,0.2843122460915,0.359305471440868,0.4276772355080676,0.48579691623430915,0.5327255750068716,0.5704510089488873,0.6034117147035203,0.6372297018140464,0.6772064014578713,0.726639356382883,0.7855507627651618,0.8501723405939422,0.9132744942639395,0.9655000704612329,0.9972311368110168,1.0006505165814363,0.971502152754556,0.9100785388046957,0.8212976158079388,0.7137942159124725,0.5982867989915218,0.4856162200568525,0.3848606015033531,0.30202773004713784,0.23943850488590754,0.1959230814016074,0.1676832889678734,0.14951528796459643,0.1361881839824686,0.12349920343177896,0.10891892962092492,0.09166476487399668,0.07257953753902568,0.053396734737387555,0.03602885284419459,0.02191477784024244,0.011472025237430836,0.004413667163712588,-0.0003397623293107999,-0.004187613308123548,-0.008395176347961842,-0.01392196571489326,-0.020630163542624175,-0.027780897004250352,-0.03420265801397793,-0.03870513053616613,-0.04074978054575426,-0.03991595975149928,-0.03655540173680057,0.0,0.0,0.0,0.0,0.0,0.0,0.0,0.0,0.0,0.0,0.0,0.0,0.0,0.0,0.0,0.0,0.0,0.0,0.0,0.0,0.0,0.0,0.0,0.0,0.0,0.0,0.0,0.0,0.0,0.0,0.0,0.0,0.0,0.0,0.0,0.0,0.0,0.0,0.0,0.0,0.0,0.0,0.0,0.0,0.0,0.0,0.0,0.0,0.0,0.0,0.0,0.0,0.0,0.0,0.0,0.0,0.0,0.0,0.0,0.6230578838694354,0.766532482676372,0.9266410267035236,1.0898147461781034,1.2410764703532928,1.36563653740732,1.4517707272367146,1.492927004757229,1.4885000233490124,1.44475989418187,1.372514555312297,1.2850109040877964,1.1951572357453326,1.1124667119524616,1.0429058654250685,0.9869973067502323,0.9407825915703699,0.8973874667334364,0.8484513148699201,0.7883523845085602,0.714148894869848,0.6267776576331091,0.530782309984964,0.4324847572841854,0.3405010485248144,0.2622171555551151,0.20278013361405822,0.1641771532364917,0.14434685412847292,0.13997553399621454,0.14574285632503417,0.15610428579586033,0.16640971681886316,0.1729542648655123,0.17530702912971297,0.17420044892683095,0.17135719600431937,0.1686422804012346,0.16669572979060424,0.16652556247569827,0.16772395176849017,0.16932457691825384,0.17031987538292384,0.16947942726191395,0.16780481516588922,0.1665428805429135,0.16740582983690414,0.17199747036461308,0.18050262143314705,0.19361910624034295,0.2103628719936821,0.2289967484951063,0.24757596139962815,0.2636194731950668,0.2779022578810748,0.29122429741827077,0.3054617065211499,0.32315445243464325,0.3456314162843224,0.37646773486176416,0.41604653596047625,0.46296919134789516,0.514293766571964,0.5651335120246971,0.6127520095230183,0.6534763758468337,0.6847085519868644,0.7054330807092848,0.7156352045844583,0.7185335892928206,0.7170996839443465,0.7143157157242114,0.7125217917424991,0.7123777640524566,0.7145539904988992,0.7178463776756462,0.720257595447624,0.7196105027757135,0.713755593082464,0.7022919175894762,0.6856078165445536,0.6650872374035026,0.6427460813518143,0.6203099489157207,0.6001899637090717,0.5839285468353654,0.5724135629935755,0.5658816599279152,0.5635276704191661,0.565208553356167,0.5702058206726911,0.5776563593393854,0.5865320897860314,0.5950924486933693,0.6025295104460068,0.6076547191375622,0.609441908193565,0.6071825196441476,0.6000752350471128,0.5889779290854545,0.5748980545222464,0.5592114821709763,0.5433513756904359,0.5279441162220231,0.5141601207441965,0.5020322634403412,0.4908916044184999,0.4795202317367242,0.4659519917856318,0.4494467714211488,0.4292960771419052,0.40557947995526633,0.37927128972849894,0.35157279857417684,0.3255175932894492,0.30353491034655894,0.28763471242850264,0.2790223477202737,0.2772203964035966,0.28224239454792477,0.2923436231079875,0.3052408132350672,0.31864122189173766,0.33006156077096593,0.3394438289395204,0.3467384715296362,0.3526279468878206,0.3582600960632017,0.3641746523777681,0.3722913853076193,0.38303191256830993,0.39607690869666745,0.41048832061468277,0.4243229132824872,0.43716630843198234,0.4480658774777219,0.45654461759345977,0.46271654516616384,0.46662358469698445,0.47005884053370806,0.474091933641771,0.4794617591152954,0.48635214328205006,0.4936202609033481,0.5010681686421065,0.5072912383342798,0.5107235513031202,0.5099877413979362,0.5034725364191517,0.49195141332357606,0.4761240827250073,0.4573057900262037,0.4371966409597786,0.41647233158250085,0.397898699586352,0.38279415700845293,0.3717296645283461,0.364405540521621,0.3582695747836362,0.35327932650825333,0.34833873025761153,0.3427185471509062,0.33620799554549263,0.3270990059209004,0.3181088994940153,0.310998449980657,0.30736200146074877,0.30801045056936427,0.3100309452508523,0.314483948476586,0.32058564375569365,0.32760402768913505,0.33498352190406283,0.3400354435932423,0.34470279253234315,0.3496973600261913,0.3555139316290883,0.3619565932387614,0.3659161027315562,0.36769892167335894,0.3664864559713613,0.3621634217839625,0.3555503005809155,0.3468610614357683,0.3397560101783602,0.33682573207566047,0.33985460047959914,0.34914400792306954,0.3623580579196688,0.37762142297842594,0.39167813285803577,0.4017736932397658,0.40673087013015313,0.40707405166017563,0.4071646572357292,0.41260821281541815,0.42977156552885193,0.46431773233723683,0.519421564657199,0.595882280380134,0.6903241417180878,0.7962879620639919,0.905687048530312,1.0107380300642825,1.1064463235746018,1.1914558080154753,1.2691213208116086,1.3470563647233873,1.435575209775012,1.5446007420950334,1.6804957006782157,1.8436845276560558,2.0274343458623587,2.218695322274134,2.399488881615442,2.550772814088362,2.656610206908487,2.7078123270013306,2.704543312924081,2.654919050120066,2.5734932046308328,2.477495187494929,2.3826626889869087,2.3001226247840907,2.233043658801371,2.177148388206389,2.122628888707846,2.0575130509724873,1.9718312728101106,1.8594933247484453,1.720377316552144,1.5602738322051035,1.3893638369129058,1.2198409588809729,1.0628853611018751,0.9261678879492099,0.812771050509036,0.7212146228533243,0.6463770862721052,0.5818993471709784,0.521184887470374,0.0,0.0,0.0,0.0,0.0,0.0,0.0,0.0,0.0,0.0,0.0,0.0,0.0,0.0,0.0,0.0,0.0,0.0,0.0,0.0,0.0,0.0,0.0,0.0,0.0,0.0,0.0,0.0,0.0,0.0,0.0,0.0,0.0,0.0,0.0,0.0,0.0,0.0,0.0,0.0,0.0,0.0,0.0,0.0,0.0,0.0,0.0,0.0,0.0,0.0,0.0,0.0,0.0,0.0,0.0,0.0,0.0,0.0,0.0
0.5704510089488873,0.6034117147035203,0.6372297018140464,0.6772064014578713,0.726639356382883,0.7855507627651618,0.8501723405939422,0.9132744942639395,0.9655000704612329,0.9972311368110168,1.0006505165814363,0.971502152754556,0.9100785388046957,0.8212976158079388,0.7137942159124725,0.5982867989915218,0.4856162200568525,0.3848606015033531,0.30202773004713784,0.23943850488590754,0.1959230814016074,0.1676832889678734,0.14951528796459643,0.1361881839824686,0.12349920343177896,0.10891892962092492,0.09166476487399668,0.07257953753902568,0.053396734737387555,0.03602885284419459,0.02191477784024244,0.011472025237430836,0.004413667163712588,-0.0003397623293107999,-0.004187613308123548,-0.008395176347961842,-0.01392196571489326,-0.020630163542624175,-0.027780897004250352,-0.03420265801397793,-0.03870513053616613,-0.04074978054575426,-0.03991595975149928,-0.03655540173680057,-0.03151477642340285,-0.025883042724430705,-0.021051218117453887,-0.01729032922394955,-0.014839436280979057,-0.013555411889613843,-0.01306095491269529,-0.013390615649683722,-0.013601869819224389,-0.013658319245864957,-0.013741101584544209,-0.014065708663001242,-0.015200693956849988,-0.016156324154866123,-0.016642878054796043,-0.016358403697963767,-0.015070462413307187,-0.01326321595754083,-0.010127500420387197,-0.006202896713345187,-0.002229542207597059,0.0011697258539844642,0.0034084444303820027,0.0053777567260339275,0.0077597856508570505,0.011461479840981325,0.017409914121276116,0.026157531563934407,0.03821609573688889,0.053307911868716855,0.07059966455219475,0.08887186122463267,0.10669653396878502,0.123080608968902,0.13737502413119462,0.1495737392448304,0.1603338083279892,0.17077934218593968,0.18230065008346125,0.19604369739157051,0.21255938040824385,0.23153942000693806,0.2517391093456453,0.2711874698797556,0.2875437528491858,0.29859454023703486,0.3027450316858869,0.2993903618945847,0.2890224578987288,0.27318410294382944,0.25408973229948995,0.23413109032309498,0.21539872040752303,0.19918338371716687,0.18588750265362827,0.1750342381345409,0.16551714896030312,0.15603180872171318,0.14531044622785838,0.13258794351560368,0.1177476032226825,0.10133644143425367,0.08445964206878283,0.06842837570669637,0.054570449746163194,0.04394391392789352,0.037155733908204217,0.03429768197615275,0.0349266645883078,0.03822948130960432,0.04317055969488557,0.04867213516194915,0.053761563449708234,0.057732981222947524,0.06017015317898348,0.06095037945002473,0.06018853641569408,0.05810936553699393,0.05509389706299283,0.05148497726820888,0.047575818927066346,0.04359206606640787,0.039593285991115,0.03583693472287447,0.032433335306659906,0.029467435313124235,0.026995595717121665,0.02487023318618318,0.02328912835020567,0.02219436009601618,0.02147826742259556,0.021000960499823158,0.020442479272950245,0.01985798544275417,0.01898554026262433,0.01749048854154907,0.01500632528252465,0.011049536012569883,0.005659353703883736,-0.0012796143850729222,-0.009665284742642026,-0.019098823451227674,-0.029006713817709306,-0.03823341518484085,-0.045824545187220254,-0.050980067956389194,-0.05320397218497999,-0.05251633975944102,-0.049059550767052006,-0.04352188225064875,-0.03681178663783111,-0.029854307545895062,-0.023494882388843546,-0.01803946116480027,-0.01356856170495596,-0.009861113089801197,-0.0065046429068101284,-0.0031194218019816953,0.0007400287377000905,0.005257797566246161,0.010383554057078479,0.015863355009925664,0.020975945431753417,0.025723783757372297,0.030062215933308947,0.03414065461227583,0.03823135292666145,0.04198697334075163,0.04623624069259828,0.0513815237958172,0.057667305252364374,0.06504644887113863,0.07266020239696946,0.0801029117110644,0.08646673159751644,0.09072058480452165,0.09186154481561579,0.08887832530567662,0.08160087613492778,0.07030754991144496,0.05589631377660843,0.03978261292129549,0.023527003358286766,0.00899466648476747,-0.0023278692819432424,-0.009502672895994883,-0.012296318973024809,-0.011261542934764465,-0.007326061269363296,-0.0017239245839087477,0.004371267078355434,0.010108819208781898,0.015023897774105562,0.019267661092441282,0.023290614120473493,0.027609153776090616,0.0325139573905886,0.037775012766190004,0.04281643472832669,0.04675351590837715,0.04871987024583541,0.04828163907922885,0.04575290453244818,0.042782471641934494,0.04222557272829799,0.047912315380012005,0.06404932076786908,0.09426232494579066,0.14103244542007612,0.2046296479291695,0.2826705799301823,0.37006931531369114,0.45935410233701224,0.5421448565818371,0.6100528183325191,0.6561445550988007,0.6760893098595132,0.6686475898466816,0.6364349003789714,0.5848781975629378,0.5213260912616742,0.45371080217559245,0.38888061992925643,0.3324744781551997,0.28748260206169146,0.25434652948148756,0.23133229449167167,0.21486079236259648,0.20171652486254404,0.18886566339574354,0.17437548086413754,0.15767382566227117,0.1389820401392513,0.12030135417634026,0.10375823812279387,0.09126804781694303,0.08401535683287069,0.0,0.0,0.0,0.0,0.0,0.0,0.0,0.0,0.0,0.0,0.0,0.0,0.0,0.0,0.0,0.0,0.0,0.0,0.0,0.0,0.0,0.0,0.0,0.0,0.0,0.0,0.0,0.0,0.0,0.0,0.0,0.0,0.0,0.0,0.0,0.0,0.0,0.0,0.0,0.0,0.0,0.0,0.0,0.0,0.0,0.0,0.0,0.0,0.0,0.0,0.0,0.0,0.0,0.0,0.0,0.0,0.0,0.0,0.0,0.46431773233723683,0.519421564657199,0.595882280380134,0.6903241417180878,0.7962879620639919,0.905687048530312,1.0107380300642825,1.1064463235746018,1.1914558080154753,1.2691213208116086,1.3470563647233873,1.435575209775012,1.5446007420950334,1.6804957006782157,1.8436845276560558,2.0274343458623587,2.218695322274134,2.399488881615442,2.550772814088362,2.656610206908487,2.7078123270013306,2.704543312924081,2.654919050120066,2.5734932046308328,2.477495187494929,2.3826626889869087,2.3001226247840907,2.233043658801371,2.177148388206389,2.122628888707846,2.0575130509724873,1.9718312728101106,1.8594933247484453,1.720377316552144,1.5602738322051035,1.3893638369129058,1.2198409588809729,1.0628853611018751,0.9261678879492099,0.812771050509036,0.7212146228533243,0.6463770862721052,0.5818993471709784,0.521184887470374,0.459283390528353,0.3937948497777694,0.3245933737106634,0.2544284244915883,0.18640921102911265,0.1232583726784586,0.0663750767022146,0.014860295118735435,-0.03244840524711144,-0.07817582854546026,-0.12482234274608973,-0.17384912734217542,-0.2259496846190013,-0.27836790614589985,-0.32859155748058033,-0.374261017772864,-0.4140733313865653,-0.449384031159128,-0.48056757653858223,-0.5106220786642182,-0.5425824847736056,-0.5782451472831307,-0.6187353006273133,-0.6592343851321324,-0.6958032849880461,-0.7244562552533673,-0.7424169631796962,-0.750954911326064,-0.7490620392126677,-0.7409602250072185,-0.7319030982839468,-0.7262591697788154,-0.7275778121681185,-0.7316913448646419,-0.7341930436872096,-0.7290379537525071,-0.7101013763779347,-0.6744274516599048,-0.6180556902234772,-0.5430325774927922,-0.4547727543422902,-0.360724683217194,-0.26983650484177585,-0.18683965601705813,-0.11573585617964374,-0.0577266346264357,-0.011347990056453308,0.025985450822861487,0.05955676898908683,0.09334089093478347,0.12997185891139668,0.17023313302685228,0.21244813429668138,0.2547687248269097,0.2940254684947637,0.32712821045138146,0.3518142561101578,0.36679019631833143,0.37295836952040745,0.3723127473770922,0.3676587987161563,0.3619433132864396,0.35734434851887187,0.35562543919186,0.3576029787631661,0.3632780853387031,0.3720723704627213,0.3829206371539938,0.3950128516932579,0.408036931896919,0.4219394947855063,0.43666053964621665,0.45172392660693955,0.4663075027202208,0.47978683128443617,0.4915732500456588,0.501248708829712,0.5086137715189838,0.5136697775492254,0.5174122550549698,0.521074468346413,0.5256486445600623,0.5313485255771363,0.5375010153228684,0.5433580114862178,0.5478950928501797,0.5500485802904127,0.5488071568749852,0.5436749500991782,0.5353623158270336,0.5252254418941655,0.5148194270040021,0.5051094303309599,0.49685042350572595,0.4902390869310018,0.48482055235882426,0.4795902737175916,0.47281410998578055,0.46363440347817086,0.45145910669334727,0.4363986523677517,0.4192914260442871,0.4010495646617118,0.38402302849610365,0.370258040777322,0.36152747636894533,0.35899257837098253,0.3623616522722481,0.37179187943203656,0.386110152469265,0.40360853263424407,0.42235005169471207,0.4398566253536131,0.45540159258140117,0.468244034227865,0.47823486924353,0.48570752501844155,0.49062912925581975,0.4944459720707833,0.49789535531676476,0.5014619135112914,0.5053273337999296,0.5082344644126218,0.5112960315361206,0.5148183332242916,0.5192284114670984,0.5249471425814175,0.5305019331264289,0.5376995612953669,0.5469448604490597,0.5583655373458809,0.5716330370318723,0.5844244360417651,0.5968327108792022,0.6075510100059602,0.6151589401495554,0.6183189314823271,0.6148912673863892,0.6056813869776505,0.5913132467092301,0.5731871361237991,0.553278000049239,0.5329949331614678,0.5152597901329723,0.5016163257298114,0.492713104765582,0.4882370686161508,0.48662664649830406,0.48693113637600893,0.48757712665117453,0.4873717152213638,0.4858349642234976,0.4828731345857424,0.48005177870191795,0.4786502225182009,0.47967762357174776,0.48343285983084444,0.4888344258245719,0.4948155190561408,0.4992607794843884,0.5001386867705878,0.4963561099783096,0.48812889018076216,0.47905404426269077,0.47457325622070884,0.48197609825005455,0.5092793601257748,0.5631416329451773,0.6487594677127719,0.7665090068158834,0.9116056005097654,1.0741212688713617,1.2395281719672508,1.3924541128319619,1.5173756398454494,1.6019024631526464,1.6389631776169484,1.627444358292096,1.5739485529284198,1.4894526369080527,1.3876408477222066,1.2821730837319545,1.183493679703315,1.0991061205338988,1.030599707916266,0.9748268895818523,0.9253829898469604,0.8739646259160931,0.814881601491473,0.7442929762547034,0.6619419940910737,0.5711769317833897,0.47738696741571895,0.3889041660867687,0.3129308103003181,0.2547959396906046,0.21697087371981896,0.0,0.0,0.0,0.0,0.0,0.0,0.0,0.0,0.0,0.0,0.0,0.0,0.0,0.0,0.0,0.0,0.0,0.0,0.0,0.0,0.0,0.0,0.0,0.0,0.0,0.0,0.0,0.0,0.0,0.0,0.0,0.0,0.0,0.0,0.0,0.0,0.0,0.0,0.0,0.0,0.0,0.0,0.0,0.0,0.0,0.0,0.0,0.0,0.0,0.0,0.0,0.0,0.0,0.0,0.0,0.0,0.0,0.0,0.0
0.6686475898466816,0.6364349003789714,0.5848781975629378,0.5213260912616742,0.45371080217559245,0.38888061992925643,0.3324744781551997,0.28748260206169146,0.25434652948148756,0.23133229449167167,0.21486079236259648,0.20171652486254404,0.18886566339574354,0.17437548086413754,0.15767382566227117,0.1389820401392513,0.12030135417634026,0.10375823812279387,0.09126804781694303,0.08401535683287069,0.08166781845736996,0.0838680501459426,0.08937279309238516,0.09667453067897314,0.10433724607396969,0.11079785693381848,0.11584193153042283,0.11954037215358163,0.12231533224498432,0.12465913531506866,0.12648002315323054,0.12818761438656248,0.12974857202543674,0.13103289762542364,0.13194594583728644,0.1322133119001824,0.1324393099338784,0.13324622275128548,0.13532955176456776,0.13923275635950425,0.1448864891610455,0.1523025848678997,0.16093785399049962,0.1700354474287452,0.17885688787461262,0.18659193948090835,0.19370659313388489,0.20072685750108407,0.20859695782506824,0.21848101938972095,0.23104573307537696,0.24765716776853905,0.26823581593721646,0.29188241289637334,0.3170742334639709,0.34174822251315046,0.3647139070659691,0.3848021869974786,0.40161611771779726,0.41566744753822077,0.4281370562262115,0.44096966045485797,0.455751121174254,0.4734055075752378,0.4938303710174085,0.5157253799268793,0.537043315304809,0.5550957072327692,0.5673336778776614,0.5719932944965962,0.5685442026007036,0.5578682870506144,0.5419012750690299,0.523181777611763,0.5042145381908096,0.4868671577258054,0.4720690657321019,0.4595575000007352,0.44819413994431456,0.43643578188502313,0.4228502040065529,0.40667013641706007,0.3877949738056742,0.3668629726639322,0.3450182044362204,0.3235035064410048,0.3034537789087947,0.28533590500552136,0.2689623148132256,0.25360062698741764,0.23817239562693598,0.22181347660247983,0.20384050399302625,0.18408260190826053,0.1629526386420351,0.14107618882675238,0.11999450919636619,0.10096826042769928,0.08494131135306417,0.07230465029665256,0.06229089391002497,0.05465889626923966,0.04845338711904004,0.04270370123269395,0.03667054174296989,0.02956843699175231,0.021989065202266865,0.01437309561314049,0.007252322708179594,0.0010364331892871977,-0.004492900300697254,-0.009028252379644414,-0.013025840141146817,-0.01704602057192725,-0.021506963604142705,-0.02698133573399218,-0.03252492763681778,-0.037565235716699556,-0.04152651432972114,-0.044050360397572604,-0.04576584551478973,-0.0462689161643808,-0.046186113768239244,-0.046218302336686744,-0.04684941154623907,-0.04864143643762445,-0.05051550357055918,-0.051738124810598356,-0.05158947028765821,-0.049648462694905526,-0.04639129014855009,-0.041923904152997404,-0.03731172160672344,-0.033726105201392506,-0.03196542825806201,-0.03232844701143168,-0.03326750408889861,-0.03258684974897773,-0.02732669439543392,-0.014282393821218493,0.009074896746549073,0.04474560474314322,0.09273693004935377,0.15109111333966121,0.21597104930408093,0.2819023145905953,0.34313222617844574,0.3938387416230583,0.42922122206317714,0.4462244924293803,0.44383282649656175,0.42358997567935636,0.3888947684605652,0.3445490461267029,0.29601782519929193,0.24849382911624723,0.2068105180988682,0.1745465340159619,0.15392915731511597,0.14581115796920363,0.14957763461496418,0.16401522449379718,0.1870504625442398,0.2160761477887833,0.24812224836244254,0.2797350232965864,0.3080698528995239,0.33050332658740467,0.3450255219821431,0.35043333875568144,0.34608160082409667,0.3330119857027547,0.3130623428401819,0.2887599955526503,0.26289225644030284,0.23772588099941264,0.21551081886340193,0.19757271992529338,0.18433358134089303,0.17535117412492424,0.16927481844267367,0.16488741940746698,0.1609710183242978,0.15668484228375046,0.15169025544389017,0.1459571497945301,0.14010043631450084,0.1348176776910014,0.13070297614526916,0.1280293367628561,0.1265556414285496,0.12582064492692993,0.1251347393611228,0.12385891812715895,0.1216426731351242,0.11843775052999851,0.11510886355683715,0.11268115236496529,0.11236012523058464,0.11525600950739225,0.12186939013735192,0.13273448573783014,0.14719390722155543,0.163946357361077,0.18137605380856706,0.19779957885157448,0.21249716791925619,0.22518802307776814,0.2364249760047705,0.2474960981097418,0.25999485763923746,0.27575271281203395,0.2958646398042246,0.32043665777533686,0.3483933130492399,0.3771544935985898,0.4043157797153894,0.42692011168664096,0.442441481182862,0.44929052798873803,0.4464090735588242,0.4355407185933476,0.41889043143341054,0.39923886923692214,0.37931189525504666,0.3606829513177079,0.34492093323547574,0.3319583767807979,0.32068221613677583,0.3093332625213553,0.29576541436031667,0.278893280624955,0.25821086523185,0.2342158563082017,0.20828709293381972,0.1821789593887,0.15800543091042324,0.13721160628232604,0.12040326491723304,0.10724092334628417,0.09658836049405578,0.0,0.0,0.0,0.0,0.0,0.0,0.0,0.0,0.0,0.0,0.0,0.0,0.0,0.0,0.0,0.0,0.0,0.0,0.0,0.0,0.0,0.0,0.0,0.0,0.0,0.0,0.0,0.0,0.0,0.0,0.0,0.0,0.0,0.0,0.0,0.0,0.0,0.0,0.0,0.0,0.0,0.0,0.0,0.0,0.0,0.0,0.0,0.0,0.0,0.0,0.0,0.0,0.0,0.0,0.0,0.0,0.0,0.0,0.0,1.627444358292096,1.5739485529284198,1.4894526369080527,1.3876408477222066,1.2821730837319545,1.183493679703315,1.0991061205338988,1.030599707916266,0.9748268895818523,0.9253829898469604,0.8739646259160931,0.814881601491473,0.7442929762547034,0.6619419940910737,0.5711769317833897,0.47738696741571895,0.3889041660867687,0.3129308103003181,0.2547959396906046,0.21697087371981896,0.19804775773943184,0.19547223449223308,0.20416845581458085,0.21846350115625648,0.23327186089918586,0.24428942034535847,0.2506449190061764,0.25256256824108647,0.25153409947876765,0.24957284807855276,0.24781180831716756,0.2481080594049936,0.25067225002285337,0.2548736102836047,0.2596234002298929,0.26315734885282055,0.2656551988927948,0.26716986130794707,0.2682504191603389,0.26967395238123304,0.2713818472013909,0.2745196816827037,0.27898525844994126,0.2842326293807851,0.2895223083457049,0.2932438645230713,0.2965824556916497,0.29987680179007664,0.3038342148133147,0.3093706643101768,0.3160596734055372,0.3263067005883472,0.3399500309889847,0.35607416460611735,0.3733115132796975,0.3892068604228472,0.40408228462682766,0.41717119229779714,0.4281574647581863,0.4372523622492182,0.44437670191667045,0.45154542719802593,0.4596032162467116,0.4690062758380983,0.47971360057101625,0.4905943016169158,0.5014653621422251,0.5111465397667379,0.5183934102166505,0.5221748388928142,0.5214837271340944,0.5167765480755686,0.5087217473610802,0.49842486231982547,0.4871999975790225,0.4758925634032576,0.46606174756820035,0.45856180570344574,0.45389355130516124,0.45222515626523074,0.45299182544609123,0.45638748559030445,0.4620282383175542,0.46936365139835995,0.47767051339105754,0.48571351619421227,0.4929848317938972,0.4986595130596193,0.5021220677733268,0.5031158705168843,0.5015558971001641,0.49839255174339575,0.4944850142065034,0.49069638277996946,0.4876512925193706,0.48490365982214784,0.4828175123327533,0.4807384260906815,0.4776186394167909,0.47218671452185695,0.46219179140166433,0.4477640210464514,0.4289710252707967,0.40664826434531154,0.3822910701470281,0.3569026403247162,0.33346778940025784,0.3140389808380073,0.3001191458853304,0.2923954257721993,0.28983487816748277,0.2923126520557396,0.29843810501353024,0.3065923213834553,0.31523797707493634,0.3225656884291345,0.32856058986349074,0.33300687881953733,0.3360491524667066,0.3380805283776735,0.33923489789677913,0.34061043948145364,0.3425894466697529,0.3453556734609182,0.34890260997045286,0.3526787788576948,0.3567351777483638,0.36019675835303505,0.3617468806482432,0.3597246915632323,0.3520429676249915,0.3375943086149083,0.3153731930949134,0.2854258350202201,0.24930150698890255,0.20994715707730854,0.17290725388207825,0.14440077482547686,0.13105287544854638,0.13887832241457287,0.17173941635910153,0.23178437495859036,0.3171117790392451,0.4222060437296095,0.538472216181631,0.6549171274506643,0.7612310351439491,0.8477856842497825,0.9077327053727777,0.9380661099486891,0.9394831557605187,0.9175215463687961,0.8796390101523238,0.8341659311671373,0.7886142321832055,0.747774075202655,0.714470622706957,0.6878163726838932,0.6643415405879525,0.639162354417722,0.6069014410807279,0.5646090949675246,0.5111619747104513,0.4480565715893058,0.37909663582292036,0.308970264874532,0.24393883977379924,0.18890966519043495,0.1470028191944753,0.11903091722811876,0.10285759823979636,0.09600763410691356,0.09457887394702698,0.09479216933179639,0.09381998857517282,0.08965850975802857,0.0832231877496773,0.07611033375652566,0.07053924178327933,0.06860905992222685,0.071051862648452,0.07879674040275333,0.09107629776159579,0.10627600441419252,0.12241849520291637,0.1371835278932463,0.14991261893720023,0.16030928845672154,0.16879681800415905,0.1762279304836059,0.18310099479691053,0.1904777167616556,0.1986875872117625,0.20761746653030017,0.21684148527780464,0.22532159270126836,0.23344347809893923,0.24122933056437967,0.2490308794951611,0.2574550400720034,0.2665165615983264,0.2777313716093938,0.2911151358604279,0.30613042615880426,0.32186539772320727,0.33674806672673935,0.3508388874632205,0.36368437306934615,0.3753085620799056,0.38627575537441106,0.39710405483037875,0.40964948266279844,0.42477481379320403,0.4427104722212466,0.46289815108147475,0.4831096409277385,0.5024929132758673,0.5193157078113612,0.5320292363171873,0.5395205467885386,0.5399341624850873,0.5347475283375197,0.525485716824106,0.5141833557335667,0.5028480130951783,0.4919443203282359,0.48301639671212165,0.4762109923723362,0.47095555694325186,0.466175479401818,0.4599878205897913,0.4520031835005508,0.4420589219170912,0.4306640773267652,0.4187887567458788,0.4070116463677271,0.3965338810441899,0.3875989378235409,0.3796524378787893,0.3714020340899395,0.3608327144652043,0.0,0.0,0.0,0.0,0.0,0.0,0.0,0.0,0.0,0.0,0.0,0.0,0.0,0.0,0.0,0.0,0.0,0.0,0.0,0.0,0.0,0.0,0.0,0.0,0.0,0.0,0.0,0.0,0.0,0.0,0.0,0.0,0.0,0.0,0.0,0.0,0.0,0.0,0.0,0.0,0.0,0.0,0.0,0.0,0.0,0.0,0.0,0.0,0.0,0.0,0.0,0.0,0.0,0.0,0.0,0.0,0.0,0.0,0.0
-0.2614928462612768,-0.2473162880413289,-0.22917083193011212,-0.21146613034321826,-0.1972066105462289,-0.1870079234072002,-0.17991820662853378,-0.17383188606766065,-0.16628015388328196,-0.15540296501424355,-0.13990496210689463,-0.11980795300714027,-0.09621412383707365,-0.0709462749719835,-0.04624063396325044,-0.0236547849775613,-0.004261440766351211,0.011632798474142931,0.02438760393931494,0.034584813059648355,0.04331299465334565,0.05133353883542173,0.05910847961299714,0.06680643716207983,0.07426315664755984,0.08173291007429528,0.08955683920356743,0.09840500693266613,0.10922527038484478,0.12289224414264105,0.14042538862708906,0.1622181420355263,0.18792550749124207,0.21635762258581256,0.24530152275930067,0.27268233421890514,0.2960632159909244,0.3134084436102082,0.3234899747867804,0.3257553468817617,0.32159312034413756,0.31273275155813446,0.3013149631402885,0.28944755120789994,0.2783055393121518,0.26930966225925806,0.2628230402753896,0.2584914378239141,0.2554051276290195,0.2517688659091607,0.24690128411394272,0.24050401742090052,0.23287000606799227,0.22469293242438346,0.21633690481222848,0.2087172288592428,0.20240959149697815,0.19759171390755187,0.19398073721974743,0.1906598686807533,0.18696775117205205,0.18240828495504904,0.17685005160156392,0.1705509605534047,0.163893515094871,0.15766541504894968,0.15256574591510066,0.14903767991117906,0.14712118388706202,0.14635264221562772,0.146123720710835,0.1456899438073014,0.14448386810370542,0.14232301389107258,0.13936938981247338,0.1365005170387178,0.13470315146914022,0.1348801547482913,0.13752484389508304,0.1422952654929462,0.1485766836115392,0.15507207319336505,0.16036596043626689,0.1634468491905323,0.16395984922688794,0.1635199554957244,0.16488729476576475,0.17200508590469207,0.18936885448598162,0.2207381776858793,0.26933085919416394,0.33561786443325725,0.4171709717303437,0.508627348100898,0.6018525983075124,0.6882969134042446,0.7591280557588083,0.8071177697238285,0.8278858417158144,0.820221089725335,0.7874651189955405,0.7355925621072745,0.6724078925039323,0.6060499462417541,0.5430342011878825,0.48863982030661657,0.44490826600405536,0.4110837256151236,0.38421405076769366,0.3596037138618127,0.33371922075283217,0.30371405027758674,0.26853876996290976,0.22911340568912714,0.18744455822776904,0.14766853323699394,0.11365543988690983,0.08853643653761051,0.07401276061056057,0.06946474693644711,0.07379839967039671,0.08442365568326826,0.0983101338022345,0.1126396550863268,0.12481653155301797,0.13428895720147924,0.14119768235852795,0.14645162431746792,0.151266549562093,0.15625818248762277,0.1624644805824103,0.17003452224741145,0.17862245527252846,0.1875896668855083,0.19590898676196333,0.2035325836022671,0.21047589912164982,0.2170926487138599,0.22391278420892355,0.23113569600687212,0.23933727407158453,0.24846317100836177,0.2581331355484081,0.2677970374428644,0.27658049761639597,0.2848909298934536,0.29298350894154784,0.30155943170615496,0.31168129067680533,0.324033681154804,0.3404067605291114,0.3610641708873758,0.3853874694184442,0.4119511098134184,0.4384280453309755,0.4632918999397413,0.48460222434282885,0.5010359831212422,0.5122209289500315,0.5186092759921901,0.5220730531183175,0.5244428290513105,0.527351149492262,0.5317765607259082,0.5375982117811696,0.5441652456723092,0.5498521677545207,0.5527715510801494,0.551332192501785,0.5445872894519999,0.5328544969854129,0.517284198611478,0.49963844438586646,0.4817888059066526,0.46506765143781376,0.45032911215844307,0.4373559251300978,0.4251414574830789,0.41224541931152014,0.3971068346057932,0.37896653247463086,0.35760278671050505,0.3335782631629868,0.3080954098233827,0.28246756834967535,0.25846109134450557,0.23718323438369399,0.21909266217322285,0.20394540033524522,0.19062784281427145,0.17837638661134267,0.16613033401017033,0.15313896048071313,0.1391601711741739,0.12438262381738707,0.1097599848834718,0.09613141808921896,0.08420661123792833,0.0743749420131026,0.06666628855903664,0.06073107838378601,0.05567524711830766,0.050512675017557566,0.04451206758521625,0.03741658484138068,0.029917743523563266,0.022869810645140633,0.01739937033795985,0.0146491931573299,0.015315064618519007,0.020149977803517516,0.028718955449334557,0.039918246133643503,0.05225347653066179,0.06397814015672389,0.07426633870680827,0.08220249440642705,0.08736715873179009,0.08985775990399368,0.0899345350188699,0.0887822720243113,0.08696669375610193,0.08482119988823478,0.08248330229445741,0.07976153801811342,0.07725666573537601,0.07524669060120161,0.07425716825787339,0.07510884468492114,0.07856441914298992,0.08607086016397579,0.0982588239885947,0.11504978143823859,0.13543958619158472,0.15714621491839906,0.17762532327432065,0.19331761296068312,0.20047480003666276,0.1957703276982483,0.17665754191042482,0.14277485506445095,0.0,0.0,0.0,0.0,0.0,0.0,0.0,0.0,0.0,0.0,0.0,0.0,0.0,0.0,0.0,0.0,0.0,0.0,0.0,0.0,0.0,0.0,0.0,0.0,0.0,0.0,0.0,0.0,0.0,0.0,0.0,0.0,0.0,0.0,0.0,0.0,0.0,0.0,0.0,0.0,0.0,0.0,0.0,0.0,0.0,0.0,0.0,0.0,0.0,0.0,0.0,0.0,0.0,0.0,0.0,0.0,0.0,0.0,0.0,0.4878708778084477,0.38742323504576415,0.26537600082762075,0.13171563531726313,-0.0020892705375921304,-0.12405401949943674,-0.2243206404449504,-0.2964338082220834,-0.3381718580480576,-0.35189527762510164,-0.3427792000456297,-0.3182737990435527,-0.2863028183159128,-0.253789262680729,-0.22590385255739262,-0.20459389334394149,-0.1895782471554326,-0.17879749134487166,-0.1694066673134004,-0.15909056917706813,-0.1458453849534798,-0.129210725563147,-0.10992716866692831,-0.08950933175969454,-0.06990482757729641,-0.0521187545776904,-0.036559620301070454,-0.02276275446849458,-0.009611996205988686,0.004040724026155112,0.019547697322771927,0.03754619699675812,0.05792630396306762,0.07986453856520812,0.10178971431896212,0.12261937556341883,0.14117843011569056,0.15677808109219465,0.1693410733364049,0.17902405108536684,0.18716074945273098,0.19466000991998056,0.20222288739524935,0.21021297307545286,0.2176758448160236,0.22551392450516225,0.2337010589350857,0.24222339228576492,0.2510848728145008,0.25865425362874606,0.2666442517585238,0.2755509496933011,0.28576747709367845,0.29736303753686116,0.3089686139909453,0.32048569521101516,0.3308923641740013,0.33899386214593474,0.3436412022592215,0.3437577538006302,0.33911512128180676,0.33040891587714444,0.3190489324328713,0.30681106667898794,0.2951937327431182,0.2854563882151713,0.27824600078368894,0.2733968965263425,0.2699809310987544,0.2664215220993993,0.261305955278022,0.2537326143322054,0.24359959324584288,0.2316691779836549,0.21925568803224518,0.20811717669871885,0.19978011248152164,0.19499861710774122,0.19335742486855553,0.19310106547799122,0.19165427080027955,0.18612887533680395,0.17428830045439503,0.15554382926356333,0.13166454911577113,0.10759620719373829,0.09089979411045937,0.09100764171328686,0.1177302336585712,0.17918101392033645,0.2803573817507331,0.4208970500699696,0.5944025317020518,0.7886071232971517,0.9864226252985221,1.1690117755821858,1.3178051254307155,1.4177003385114784,1.4594840129357316,1.4409300066717325,1.367983491873238,1.252508276005166,1.1104108532147856,0.9588641475688787,0.8131101262934732,0.6856417128043455,0.5835208543519235,0.5085912641331906,0.4582442822020256,0.4263323952895123,0.4066553444583942,0.39286747915765546,0.3801502859303891,0.3657395344863797,0.3483580347006204,0.3291832620395938,0.3095643582088218,0.2907235099573677,0.2732347867707337,0.2564420446842314,0.2399340875287462,0.22265988862468672,0.20381119258051494,0.18321805082743262,0.1611475266821177,0.13940259770581973,0.11980175622846789,0.10403950418481815,0.09320131488413155,0.08709543542592964,0.08529018596927379,0.08629392101539234,0.0883093957309519,0.08975817104167587,0.08943719897583124,0.08770164254210147,0.0855418122660131,0.08452862760109921,0.08631502719922016,0.09186318337479747,0.10183238932004088,0.115714161227643,0.1321830769831456,0.14947289637687794,0.1653545137261698,0.1795258335992979,0.1916377964503971,0.20223050080569485,0.21263076555453572,0.22378634017256577,0.2387741556558674,0.25839330403675675,0.28230283066415335,0.3091013836282699,0.33609741621657635,0.3616511410832374,0.3831097864778836,0.39821544741675863,0.4055720017020041,0.4046950325468728,0.3968718860013364,0.38378584193443427,0.36757116452782734,0.35041817311385826,0.33398759259129257,0.3199680371283731,0.3089535000899029,0.300883564938004,0.2952643445257124,0.29120261824241117,0.28840240284201446,0.2863901273625997,0.2848403549267247,0.28353189910422205,0.28207711953306397,0.2804852595604048,0.2784571315056387,0.2756544729546814,0.2717994536827318,0.2666265232888861,0.2604317890145981,0.2535856594660882,0.24657920497631203,0.23986816366467942,0.23361338080381364,0.22786185202148573,0.2221775994608636,0.21582397150660196,0.20793687364662708,0.19771993358790402,0.18478882540225272,0.1691369072097632,0.1512665747899532,0.13213223953737183,0.11269761177642938,0.09455454327484689,0.0788119057656936,0.06608367858120054,0.05632760542811658,0.0483258597903789,0.041473569219735835,0.03462543712438084,0.02686132244003344,0.01777228258876413,0.007250505521456263,-0.003321575034497936,-0.012519879741182231,-0.018787282233740536,-0.020783040250588334,-0.01791034584564337,-0.009717681378693147,0.0030114431052179363,0.018808931154387414,0.035854682906511705,0.05215017548109263,0.06660264811385498,0.078278111278591,0.08683310640862833,0.09249240606361173,0.09571881001103826,0.09772222183657382,0.09937810968199128,0.10135559710898485,0.10401535488604094,0.10721122083754112,0.11084408014716389,0.11416015709375162,0.11611566072098856,0.11553830370847008,0.1112207221354838,0.10253992502903206,0.08906175536574484,0.07099601535469059,0.04939509449996191,0.026151125393189024,0.0043549798579089975,-0.012501070881397517,-0.020689446809373558,-0.016748114708546275,0.0018308752508111245,0.03643316743278026,0.0,0.0,0.0,0.0,0.0,0.0,0.0,0.0,0.0,0.0,0.0,0.0,0.0,0.0,0.0,0.0,0.0,0.0,0.0,0.0,0.0,0.0,0.0,0.0,0.0,0.0,0.0,0.0,0.0,0.0,0.0,0.0,0.0,0.0,0.0,0.0,0.0,0.0,0.0,0.0,0.0,0.0,0.0,0.0,0.0,0.0,0.0,0.0,0.0,0.0,0.0,0.0,0.0,0.0,0.0,0.0,0.0,0.0,0.0
0.820221089725335,0.7874651189955405,0.7355925621072745,0.6724078925039323,0.6060499462417541,0.5430342011878825,0.48863982030661657,0.44490826600405536,0.4110837256151236,0.38421405076769366,0.3596037138618127,0.33371922075283217,0.30371405027758674,0.26853876996290976,0.22911340568912714,0.18744455822776904,0.14766853323699394,0.11365543988690983,0.08853643653761051,0.07401276061056057,0.06946474693644711,0.07379839967039671,0.08442365568326826,0.0983101338022345,0.1126396550863268,0.12481653155301797,0.13428895720147924,0.14119768235852795,0.14645162431746792,0.151266549562093,0.15625818248762277,0.1624644805824103,0.17003452224741145,0.17862245527252846,0.1875896668855083,0.19590898676196333,0.2035325836022671,0.21047589912164982,0.2170926487138599,0.22391278420892355,0.23113569600687212,0.23933727407158453,0.24846317100836177,0.2581331355484081,0.2677970374428644,0.27658049761639597,0.2848909298934536,0.29298350894154784,0.30155943170615496,0.31168129067680533,0.324033681154804,0.3404067605291114,0.3610641708873758,0.3853874694184442,0.4119511098134184,0.4384280453309755,0.4632918999397413,0.48460222434282885,0.5010359831212422,0.5122209289500315,0.5186092759921901,0.5220730531183175,0.5244428290513105,0.527351149492262,0.5317765607259082,0.5375982117811696,0.5441652456723092,0.5498521677545207,0.5527715510801494,0.551332192501785,0.5445872894519999,0.5328544969854129,0.517284198611478,0.49963844438586646,0.4817888059066526,0.46506765143781376,0.45032911215844307,0.4373559251300978,0.4251414574830789,0.41224541931152014,0.3971068346057932,0.37896653247463086,0.35760278671050505,0.3335782631629868,0.3080954098233827,0.28246756834967535,0.25846109134450557,0.23718323438369399,0.21909266217322285,0.20394540033524522,0.19062784281427145,0.17837638661134267,0.16613033401017033,0.15313896048071313,0.1391601711741739,0.12438262381738707,0.1097599848834718,0.09613141808921896,0.08420661123792833,0.0743749420131026,0.06666628855903664,0.06073107838378601,0.05567524711830766,0.050512675017557566,0.04451206758521625,0.03741658484138068,0.029917743523563266,0.022869810645140633,0.01739937033795985,0.0146491931573299,0.015315064618519007,0.020149977803517516,0.028718955449334557,0.039918246133643503,0.05225347653066179,0.06397814015672389,0.07426633870680827,0.08220249440642705,0.08736715873179009,0.08985775990399368,0.0899345350188699,0.0887822720243113,0.08696669375610193,0.08482119988823478,0.08248330229445741,0.07976153801811342,0.07725666573537601,0.07524669060120161,0.07425716825787339,0.07510884468492114,0.07856441914298992,0.08607086016397579,0.0982588239885947,0.11504978143823859,0.13543958619158472,0.15714621491839906,0.17762532327432065,0.19331761296068312,0.20047480003666276,0.1957703276982483,0.17665754191042482,0.14277485506445095,0.09535514276427436,0.0375091915982611,-0.02609924460679706,-0.09019777861061166,-0.14871104877429328,-0.1965588105156566,-0.23016360212746503,-0.24796881691184242,-0.25096061300569705,-0.24126493474964864,-0.22250987718821566,-0.198816322604594,-0.17405376446864812,-0.15173594073597266,-0.1332400244700833,-0.11895204363169888,-0.10827696729554527,-0.10013871202545384,-0.0940767158711152,-0.088832055028935,-0.08384005887951457,-0.07887245991319707,-0.07392210680507129,-0.06964129083758461,-0.06541438539356223,-0.060743791247233815,-0.05500993717642054,-0.04770550158468874,-0.039260574427270524,-0.029330309512197866,-0.018249600379438673,-0.006528760293043327,0.00529212600239842,0.016284996125870938,0.0267407692008648,0.0369284854096963,0.04730080573443837,0.05828975358948558,0.06971690802345504,0.08189146445202554,0.09461787952295346,0.10755083950851384,0.12032818540994014,0.1323609253834452,0.14404928925591504,0.15582514785366636,0.16835539351409276,0.18236661723039468,0.19811426225827689,0.21619131931605595,0.23643165809121627,0.25821097104170043,0.2805835524736091,0.30236560938877743,0.3229081377241688,0.342040742609852,0.36028524330332273,0.3788004877168235,0.3991100864139772,0.4226191026440041,0.45044194989288217,0.4827821854015936,0.5186338864240756,0.5557686786817716,0.5910943971763618,0.6214826846955728,0.6443913939121535,0.6584672851313276,0.6638325672289612,0.6620813018269988,0.6558952455054772,0.6482652774776675,0.6416767972826979,0.6372429074957381,0.6350032415124365,0.6336529634895924,0.6310567726528352,0.6248863094340681,0.6128915740489099,0.5945651601775384,0.5705363778516254,0.5425829717209182,0.5131281720922919,0.4843401372231097,0.4582818933785944,0.4359475583540509,0.4172882141969297,0.40137003475051564,0.38663701881209883,0.371722211900966,0.3555456881939647,0.3376848439567387,0.3184377792893276,0.29857562872768195,0.27942211833171826,0.2621018737756165,0.24738299505027495,0.23550552382813955,0.22605834551150436,0.0,0.0,0.0,0.0,0.0,0.0,0.0,0.0,0.0,0.0,0.0,0.0,0.0,0.0,0.0,0.0,0.0,0.0,0.0,0.0,0.0,0.0,0.0,0.0,0.0,0.0,0.0,0.0,0.0,0.0,0.0,0.0,0.0,0.0,0.0,0.0,0.0,0.0,0.0,0.0,0.0,0.0,0.0,0.0,0.0,0.0,0.0,0.0,0.0,0.0,0.0,0.0,0.0,0.0,0.0,0.0,0.0,0.0,0.0,1.4409300066717325,1.367983491873238,1.252508276005166,1.1104108532147856,0.9588641475688787,0.8131101262934732,0.6856417128043455,0.5835208543519235,0.5085912641331906,0.4582442822020256,0.4263323952895123,0.4066553444583942,0.39286747915765546,0.3801502859303891,0.3657395344863797,0.3483580347006204,0.3291832620395938,0.3095643582088218,0.2907235099573677,0.2732347867707337,0.2564420446842314,0.2399340875287462,0.22265988862468672,0.20381119258051494,0.18321805082743262,0.1611475266821177,0.13940259770581973,0.11980175622846789,0.10403950418481815,0.09320131488413155,0.08709543542592964,0.08529018596927379,0.08629392101539234,0.0883093957309519,0.08975817104167587,0.08943719897583124,0.08770164254210147,0.0855418122660131,0.08452862760109921,0.08631502719922016,0.09186318337479747,0.10183238932004088,0.115714161227643,0.1321830769831456,0.14947289637687794,0.1653545137261698,0.1795258335992979,0.1916377964503971,0.20223050080569485,0.21263076555453572,0.22378634017256577,0.2387741556558674,0.25839330403675675,0.28230283066415335,0.3091013836282699,0.33609741621657635,0.3616511410832374,0.3831097864778836,0.39821544741675863,0.4055720017020041,0.4046950325468728,0.3968718860013364,0.38378584193443427,0.36757116452782734,0.35041817311385826,0.33398759259129257,0.3199680371283731,0.3089535000899029,0.300883564938004,0.2952643445257124,0.29120261824241117,0.28840240284201446,0.2863901273625997,0.2848403549267247,0.28353189910422205,0.28207711953306397,0.2804852595604048,0.2784571315056387,0.2756544729546814,0.2717994536827318,0.2666265232888861,0.2604317890145981,0.2535856594660882,0.24657920497631203,0.23986816366467942,0.23361338080381364,0.22786185202148573,0.2221775994608636,0.21582397150660196,0.20793687364662708,0.19771993358790402,0.18478882540225272,0.1691369072097632,0.1512665747899532,0.13213223953737183,0.11269761177642938,0.09455454327484689,0.0788119057656936,0.06608367858120054,0.05632760542811658,0.0483258597903789,0.041473569219735835,0.03462543712438084,0.02686132244003344,0.01777228258876413,0.007250505521456263,-0.003321575034497936,-0.012519879741182231,-0.018787282233740536,-0.020783040250588334,-0.01791034584564337,-0.009717681378693147,0.0030114431052179363,0.018808931154387414,0.035854682906511705,0.05215017548109263,0.06660264811385498,0.078278111278591,0.08683310640862833,0.09249240606361173,0.09571881001103826,0.09772222183657382,0.09937810968199128,0.10135559710898485,0.10401535488604094,0.10721122083754112,0.11084408014716389,0.11416015709375162,0.11611566072098856,0.11553830370847008,0.1112207221354838,0.10253992502903206,0.08906175536574484,0.07099601535469059,0.04939509449996191,0.026151125393189024,0.0043549798579089975,-0.012501070881397517,-0.020689446809373558,-0.016748114708546275,0.0018308752508111245,0.03643316743278026,0.08633478766906043,0.14869467511363,0.21868406138185054,0.28979856207170296,0.35513437938135756,0.4077941647395732,0.4420358100574353,0.45411623747224733,0.44264195074271306,0.409359405883018,0.3583507021442173,0.2955262688542978,0.22770160937340486,0.16129814960565333,0.10228856414447982,0.054844181859227,0.021133157654358883,0.001286981274562387,-0.006679441725013456,-0.005237412811090291,0.002485598722864869,0.013462987317944104,0.025153483954604264,0.03528425298750606,0.04303885068175931,0.04796106662097833,0.04995189086638942,0.04901998663464614,0.04470714927454034,0.03737584113713313,0.02723803250457948,0.01478733800571779,0.0008808568846698082,-0.01363531477443557,-0.02699620078109719,-0.03771376387556862,-0.04464005289078769,-0.04725827286530652,-0.04611265505878994,-0.04189104641473727,-0.03596000362491724,-0.029757411805998755,-0.024388245145358624,-0.02050880828721504,-0.017578261703900293,-0.01446804736661175,-0.009626293442282134,-0.0015182174254107278,0.010804014792091851,0.027731889545158584,0.048729090958763856,0.07249845345442016,0.09729165459509174,0.12109114875646504,0.14291665279169685,0.162279050945432,0.17960050441906034,0.19610152661559416,0.21306425875786156,0.23268914331338675,0.2560613786823589,0.283291897819273,0.3133965625918413,0.3442089695247133,0.3735447530814174,0.3988955991282484,0.4182766334700569,0.4306915985680883,0.4362835296718054,0.43646196683670596,0.4333610235523574,0.4293007864412268,0.42616481919908955,0.42455495041685337,0.4246302081517155,0.4253477361814847,0.42499222288508,0.4216380398300908,0.4130155226159367,0.3988555595154808,0.3796034826589308,0.3567141776147962,0.33227439639835826,0.3078955450787576,0.28590240834125236,0.26762501920007786,0.25347534272348005,0.24291075296662581,0.2341160816777627,0.22590054447312355,0.21704578709851768,0.206889974753127,0.1954502687537996,0.18315586002320894,0.17117287860870528,0.1607059417655494,0.1527772708319633,0.14798978454097336,0.14655930290936173,0.0,0.0,0.0,0.0,0.0,0.0,0.0,0.0,0.0,0.0,0.0,0.0,0.0,0.0,0.0,0.0,0.0,0.0,0.0,0.0,0.0,0.0,0.0,0.0,0.0,0.0,0.0,0.0,0.0,0.0,0.0,0.0,0.0,0.0,0.0,0.0,0.0,0.0,0.0,0.0,0.0,0.0,0.0,0.0,0.0,0.0,0.0,0.0,0.0,0.0,0.0,0.0,0.0,0.0,0.0,0.0,0.0,0.0,0.0
0.4602389704286512,0.43125929912616046,0.38813925175558905,0.33575943478996767,0.27966055113499355,0.22462873578952966,0.17586104326970262,0.13633585823258512,0.1071769643151358,0.0877163295101739,0.07524023373612598,0.0676357818363837,0.06209833357148649,0.05636769796996704,0.049156959764766375,0.03964313859832668,0.02939117927441252,0.02004044989205264,0.013335942840038601,0.010597590019358855,0.01166657714069256,0.01688385085434651,0.025360008361579735,0.035785591550499284,0.046768517916931734,0.05657220382515263,0.06503595866705209,0.07206051904460346,0.07790298136954235,0.08293944581450462,0.08699720060649056,0.09059828557072672,0.09374232064634905,0.09635264044246725,0.09841846267298225,0.09978315981126291,0.10124651984020863,0.10356848810767479,0.10756918478346983,0.11389747953145982,0.1225857184855267,0.13366033969973287,0.14650286925880346,0.1601978286410106,0.17378754868098195,0.18627743546516937,0.1978391642653788,0.20889013897336847,0.2203974544896002,0.23367761783050406,0.24972539865607774,0.27001635004260943,0.2947489956113386,0.3231877500900787,0.35376486505848553,0.3841915201388655,0.412652996672128,0.43745713770375366,0.45776814825465006,0.47385211228646695,0.4869478559923475,0.4991696338722137,0.5126156448484469,0.5288012386024977,0.5481101937726834,0.5694501413420153,0.5906097103197917,0.6084908881341585,0.6199076686164813,0.6223682752588999,0.6146251834993818,0.597206996315768,0.5721228692868718,0.5424247742320095,0.5114809894135036,0.4821017001803559,0.4562999242836723,0.4346847365688084,0.41662026320028456,0.4005937035681075,0.38461145186333107,0.3672403898251276,0.3475826508627327,0.3256055027210489,0.302075348497911,0.27812375593825583,0.2553624877208585,0.23500429026698744,0.21772750131905702,0.20355699342771452,0.1917617907858961,0.18159494206652527,0.1720505211962029,0.16230755484435802,0.15192965875449008,0.14075471988955884,0.12942765951822138,0.11856755334977619,0.10874961787106469,0.10030232408126558,0.09299293511871021,0.0867075626446062,0.08080893806399456,0.07462374723043581,0.06770215124353361,0.05974849194026803,0.05162702182416453,0.04417354765657603,0.03837170325835351,0.03510197840580166,0.03456018711450335,0.03729410322179124,0.04274514422251783,0.04989067288406675,0.057529793961011294,0.06421146776427666,0.06984668223593031,0.07418669539399274,0.07739484778151372,0.07995760951622093,0.08208021300005096,0.08501571803781223,0.08904662245393022,0.09407642146645856,0.09971270194872556,0.10505613318195792,0.11011281016265796,0.114396053214364,0.117557721815963,0.11946779438123017,0.11995224406875038,0.11973585977530123,0.11916281075535601,0.11853249893994285,0.1180559117565851,0.11759901376575878,0.11746961474701655,0.11748224136378715,0.11732510114395996,0.11664402913194004,0.11495382080228456,0.11232584761306713,0.10874589493229256,0.10436438655882489,0.09948914895374227,0.09428408366652223,0.08952920886103317,0.08573243974333208,0.08327513606703679,0.08233426877554449,0.08250402267188771,0.08385903113390712,0.08610288111350609,0.08888364233610799,0.09184749153658774,0.09459216580158863,0.09698621615349573,0.09890040881424837,0.100320879408371,0.101360714297631,0.10241136300275418,0.10362579009870222,0.10517440010822161,0.10712678560512132,0.1094302641524297,0.1119842675638709,0.11447419952080765,0.116496033686442,0.11762462957134967,0.11749981400722839,0.11588219976375275,0.11279586888423195,0.10838522450508407,0.10296740002578152,0.09699999276449171,0.09094381127077979,0.08547403079817505,0.08107052115493302,0.07804881071313739,0.076500171521755,0.07611719446120342,0.07668293319195547,0.07764571760465044,0.07840218874610082,0.07847172342711349,0.07752799340569844,0.07608482677717893,0.07505957027200982,0.07590669444523308,0.08044327533247198,0.0903580089873693,0.10735896173357408,0.13216506726259145,0.1642868395005013,0.20179114748422158,0.24108455058322076,0.27785962954080917,0.30700033915107405,0.3234774932251666,0.3231390196359712,0.30319375773867036,0.26354657004175747,0.20635183035068144,0.13605650121452562,0.05885943111210574,-0.018447164273654004,-0.08853578464555877,-0.1453849038685351,-0.18489612498975252,-0.20542015741175976,-0.20821953794162937,-0.19598972549510407,-0.1731201866472152,-0.14453998160647782,-0.11484225444139083,-0.08803516295064119,-0.06575525664817236,-0.04839418351302382,-0.03508793602086892,-0.02426435147102192,-0.014784891121235877,-0.004805636078814353,0.006552294628906118,0.019478346601649835,0.0335496073431853,0.04742074754214672,0.060642037317426435,0.07258184252100071,0.0828684424866107,0.09136356615739251,0.09758429025480417,0.10210826966027627,0.10530638251953987,0.10761958958665813,0.10951708533021856,0.11107830347327037,0.1131437916961026,0.11629326903644271,0.12102896674966826,0.1276706045030446,0.1359879543978218,0.0,0.0,0.0,0.0,0.0,0.0,0.0,0.0,0.0,0.0,0.0,0.0,0.0,0.0,0.0,0.0,0.0,0.0,0.0,0.0,0.0,0.0,0.0,0.0,0.0,0.0,0.0,0.0,0.0,0.0,0.0,0.0,0.0,0.0,0.0,0.0,0.0,0.0,0.0,0.0,0.0,0.0,0.0,0.0,0.0,0.0,0.0,0.0,0.0,0.0,0.0,0.0,0.0,0.0,0.0,0.0,0.0,0.0,0.0,0.6974130428683387,0.6907269208527448,0.6766927288217527,0.6615130424337626,0.6498166171158722,0.6432173531968458,0.6408691422788256,0.6385818431959936,0.630208607895798,0.6091518448335873,0.5696774205747817,0.5094093000355778,0.4290788097707077,0.3329539552812015,0.2281614223703154,0.1230089483102896,0.026607694772014474,-0.05385488513062763,-0.11399295336161959,-0.15282900009295655,-0.17311808215547256,-0.179182883893784,-0.17687391715183565,-0.17185659475981735,-0.16843357767568912,-0.16921772750083644,-0.17369135995586044,-0.17976034321493528,-0.18426961586722884,-0.1840381552584217,-0.17717192246914995,-0.1624858019920191,-0.14074228906305358,-0.11405093880557837,-0.08527925782269112,-0.05769617594087363,-0.03326847843767365,-0.01325006379082216,0.0021397805810732433,0.013479639613039471,0.021431432382583115,0.027332566560584397,0.03208373815840039,0.03626687655034839,0.04019306818425616,0.0436347454248358,0.04743440480650198,0.052113344845868124,0.058358527945002285,0.06690649675547285,0.07780724142492045,0.09207527774255143,0.10937419294996226,0.12879276161445263,0.1490653374459008,0.16841377538211866,0.1865435687353739,0.20291403799180616,0.2175806833287042,0.23122417813632873,0.24458104933512584,0.2596063332522292,0.2772860543727709,0.297928843769958,0.3209987994629133,0.34492455263835725,0.3679990295346455,0.3879601838825162,0.40271063470062846,0.4107734207894979,0.4116231809684312,0.40571190546124897,0.39456090047873316,0.38029433240246446,0.3651526663066187,0.35099762966865267,0.3390373542480836,0.32988067799386095,0.3235217890088218,0.31953191182373947,0.3172248284957687,0.31602330990428,0.3156528541765382,0.3160202524670806,0.3170475224018744,0.3184201610160955,0.3196300712924968,0.3199498933315792,0.3185260710513567,0.3145631329800094,0.30747655665228457,0.2972214242788176,0.2842149825633663,0.2693118446917872,0.25362803076138846,0.23823751196342743,0.2241379792770515,0.21187189170179146,0.20151059987660347,0.1926929285427675,0.18469015014496057,0.17684970821752588,0.16854409667439704,0.15942331196557358,0.14950542210227735,0.13900319739588907,0.1287717208227886,0.11955167623961883,0.11195934504467399,0.1063179156617872,0.10230382531127567,0.09981059917374216,0.09815548883222021,0.09657092460464343,0.09444380978722998,0.09124523193582419,0.08760791579853557,0.08424155141697749,0.08217808174084237,0.08256970391267275,0.08613079565310315,0.09393887825546551,0.10598420673804493,0.12153926766721207,0.13924648294059394,0.15704640337180847,0.1733643645384035,0.18627324905600606,0.1941507863898692,0.19592326196851514,0.19099482065512424,0.18010299111586675,0.164291309558709,0.1451019069883443,0.12438116077982143,0.10379319465506907,0.08541270927584074,0.0704917730678053,0.059649110671709145,0.05283905959112773,0.04917202534220806,0.047990641119039605,0.048083756109647734,0.04831375303593983,0.04788125248283835,0.04624618698375946,0.04404058082210431,0.04204792317251105,0.041318431455104096,0.04292344537454898,0.04744798579149156,0.05560707999538467,0.067282411065273,0.08177327279837576,0.09789485636201242,0.11383337821975054,0.12840248880133667,0.14031778374674275,0.14863993336097495,0.15286626734947587,0.15255007840841756,0.14849597653591037,0.14161454304052434,0.13305620677239796,0.12401169635813455,0.11534335435306957,0.10796057103414138,0.10221947378538046,0.09807407117265313,0.09515712536679324,0.09298423970431687,0.09095537389625794,0.08853988157018441,0.0854258007126721,0.08160501269162489,0.0773574373568075,0.07331796218600478,0.07009207433959846,0.06821891694636782,0.06805290001645654,0.06956838840942003,0.07277171340967233,0.07720471144954115,0.08225377509008679,0.0873125531772372,0.09186717018124832,0.09586199591122249,0.09939852636955843,0.10281308576182266,0.10657220633801787,0.11110002063100721,0.11670877289206578,0.12336339999173579,0.13071056006241408,0.13817901706702346,0.14512917536809516,0.1512943472063197,0.15683333626825463,0.1625338282665251,0.16978582779602902,0.18026599069082658,0.19580167707720808,0.21759570055690317,0.24578869679933682,0.279085723265325,0.31441843481143766,0.34785747096229314,0.37449596555853276,0.3893866834428799,0.3883856187346209,0.3685742958819873,0.3299557159988654,0.2746521274626145,0.20700948583121015,0.13301019058572927,0.058969947924392425,-0.008139111189160074,-0.06278250099983727,-0.10130569575058895,-0.12236523756316237,-0.12744543433914515,-0.11895629253610444,-0.10081211287529686,-0.07731981389056986,-0.05247731638712656,-0.029924696433555147,-0.011283344627949086,0.0026668538303005122,0.01203220570051101,0.01741060478890923,0.019089997549483883,0.01810551852375526,0.015108315181209917,0.010687936069547686,0.005459643567435547,-0.00027006827871307106,-0.005261347184107992,-0.008484935677214051,-0.009056366003862509,-0.006491317654038138,-0.0012765530750194327,0.0,0.0,0.0,0.0,0.0,0.0,0.0,0.0,0.0,0.0,0.0,0.0,0.0,0.0,0.0,0.0,0.0,0.0,0.0,0.0,0.0,0.0,0.0,0.0,0.0,0.0,0.0,0.0,0.0,0.0,0.0,0.0,0.0,0.0,0.0,0.0,0.0,0.0,0.0,0.0,0.0,0.0,0.0,0.0,0.0,0.0,0.0,0.0,0.0,0.0,0.0,0.0,0.0,0.0,0.0,0.0,0.0,0.0,0.0
-0.018447164273654004,-0.08853578464555877,-0.1453849038685351,-0.18489612498975252,-0.20542015741175976,-0.20821953794162937,-0.19598972549510407,-0.1731201866472152,-0.14453998160647782,-0.11484225444139083,-0.08803516295064119,-0.06575525664817236,-0.04839418351302382,-0.03508793602086892,-0.02426435147102192,-0.014784891121235877,-0.004805636078814353,0.006552294628906118,0.019478346601649835,0.0335496073431853,0.04742074754214672,0.060642037317426435,0.07258184252100071,0.0828684424866107,0.09136356615739251,0.09758429025480417,0.10210826966027627,0.10530638251953987,0.10761958958665813,0.10951708533021856,0.11107830347327037,0.1131437916961026,0.11629326903644271,0.12102896674966826,0.1276706045030446,0.1359879543978218,0.1460351090035935,0.1574337076607324,0.16965462909962212,0.18211876884271846,0.19401219074760667,0.20534911128907285,0.21607698226781405,0.22637017863485615,0.2365669331823923,0.24674262404004882,0.25763489542665974,0.2693678454374193,0.2817890904625231,0.294521509398779,0.30693205484489366,0.31880461654349407,0.3300736188426436,0.34106125525222214,0.35247608561516575,0.36526910891896663,0.380308240911415,0.39832780151435476,0.41946702021312177,0.44304052276357525,0.4674973096568208,0.4906998473702813,0.5104734649762693,0.5250696436273217,0.5336049599119848,0.5362411420003222,0.534265713619561,0.529664329569218,0.5245745029337392,0.5206713739807753,0.5185954935861322,0.5179952343859451,0.5174024322751076,0.5147064604676562,0.5077377880495659,0.4947495904998077,0.47525422058050365,0.44981846268234754,0.4200744686490589,0.38835165357206664,0.357017199600338,0.32842394318590107,0.30402786105430846,0.2843407853885039,0.26896551909456734,0.2566567398462073,0.24622979101161013,0.23636814341277093,0.22610471316726682,0.2149982209321848,0.20293676817271109,0.1907449316206652,0.17922207784757394,0.1691391258411403,0.16103092276980221,0.15480037100133254,0.15058283329774977,0.14788564674420657,0.1460389130719457,0.14437455177009423,0.14210240662826942,0.13931238966560913,0.1359399937346281,0.13204305790648646,0.12771818077038624,0.12274741495405592,0.11752124017047544,0.11193799574252843,0.10587268278344564,0.09930489026401765,0.09209318351067985,0.0851415747138841,0.07897763596569413,0.07410594909334375,0.07089159975764907,0.06908611682502035,0.06910190314308373,0.07044981087960452,0.07243289792157546,0.07436834304200192,0.07542661408806546,0.07605035066471275,0.07640529895549744,0.07685316788749431,0.07784508632635476,0.0794253477272806,0.08237313488679981,0.08660349104743932,0.09172671399291339,0.09718561058299005,0.1020749348520355,0.10649180510871781,0.11028676910029157,0.11353826783834993,0.11652613483962534,0.11930131956297026,0.12269511474038629,0.12703802715481333,0.13242416846940103,0.13866298580532985,0.14496519467819002,0.15103701605168113,0.15615565977353044,0.1596050181399499,0.16079983677103435,0.15909548287968156,0.15479768721468068,0.1482861928225181,0.14023143020930512,0.13148594728007088,0.12273309144040496,0.11500071961249977,0.10887020768686267,0.10461017514734045,0.1021720577891074,0.10113277711793414,0.10118765008109383,0.10183258532250375,0.10262565801556643,0.10327364440145899,0.10359879819151907,0.1037531243973212,0.10386280707884807,0.10405123579946364,0.10437523101381055,0.1047698793066396,0.10513358535227482,0.10523046190933115,0.1048335337831378,0.10383701789356532,0.1022683237619412,0.10065116486403172,0.09968675242611622,0.10026386545020624,0.10329880477332007,0.1093676780231664,0.11902475160363327,0.13217132817008304,0.1481350956757534,0.16572569863257985,0.183182348802179,0.199163265852452,0.21239209193759512,0.22209778480046624,0.2281525924918396,0.23077026597928968,0.23127208969885005,0.23098414654047406,0.23112647342772433,0.2324724205073609,0.23473249554160205,0.23763681994040223,0.239998392088541,0.24025213172011792,0.2367922485228822,0.22788920830480575,0.21341773541844108,0.19380230081694935,0.17035269807071884,0.1450306589562993,0.11952128768038822,0.09640808964245481,0.07734070553029777,0.06306692082222125,0.053269069389716366,0.04603964833431581,0.040102362172646115,0.03378170632671962,0.025895604022837224,0.01608693297831711,0.0043013290786459435,-0.007432886090616631,-0.01694048711890935,-0.022032668145351795,-0.021095203433082133,-0.014176543578542032,-0.0011955817760689934,0.016583951401982617,0.03730466371824662,0.058932804129054994,0.07910728910736435,0.09715942278560277,0.11282230762649952,0.12649720377193865,0.13896081169119212,0.150536635044035,0.16227095723319312,0.17455060150005192,0.1874038753428949,0.20057811381529642,0.2132768413187302,0.22564111114340407,0.23770226715304202,0.24974072220590385,0.26219541593940077,0.2751447965450362,0.2892804239205528,0.3046531977551228,0.32097751545568715,0.33770367809255775,0.3538755644847267,0.0,0.0,0.0,0.0,0.0,0.0,0.0,0.0,0.0,0.0,0.0,0.0,0.0,0.0,0.0,0.0,0.0,0.0,0.0,0.0,0.0,0.0,0.0,0.0,0.0,0.0,0.0,0.0,0.0,0.0,0.0,0.0,0.0,0.0,0.0,0.0,0.0,0.0,0.0,0.0,0.0,0.0,0.0,0.0,0.0,0.0,0.0,0.0,0.0,0.0,0.0,0.0,0.0,0.0,0.0,0.0,0.0,0.0,0.0,0.31441843481143766,0.34785747096229314,0.37449596555853276,0.3893866834428799,0.3883856187346209,0.3685742958819873,0.3299557159988654,0.2746521274626145,0.20700948583121015,0.13301019058572927,0.058969947924392425,-0.008139111189160074,-0.06278250099983727,-0.10130569575058895,-0.12236523756316237,-0.12744543433914515,-0.11895629253610444,-0.10081211287529686,-0.07731981389056986,-0.05247731638712656,-0.029924696433555147,-0.011283344627949086,0.0026668538303005122,0.01203220570051101,0.01741060478890923,0.019089997549483883,0.01810551852375526,0.015108315181209917,0.010687936069547686,0.005459643567435547,-0.00027006827871307106,-0.005261347184107992,-0.008484935677214051,-0.009056366003862509,-0.006491317654038138,-0.0012765530750194327,0.006285602881661647,0.015208206987251333,0.02437751006915075,0.03287939939136098,0.03993984542545645,0.046187250309078255,0.05265085802338398,0.060817372562798684,0.0722501164367601,0.08784356576815887,0.10846445235732342,0.13380573102293525,0.16268568723645033,0.1932783681650334,0.223157610307384,0.2509135106287758,0.2753854565942432,0.2962990863956154,0.3143066198933067,0.3303950410769358,0.34678175556752566,0.36499142857981653,0.38585896025680055,0.40924173425789134,0.43374328865996703,0.45765177511170785,0.4786700662638975,0.49466472563611197,0.504176848622476,0.5066992260681058,0.5029134448377858,0.49451147867890394,0.4837064901877949,0.47266485073011333,0.4628836115181791,0.455194239959906,0.44954163777014533,0.4452071238799736,0.4411528528377507,0.4362480912173662,0.43004857044840683,0.4225512094104864,0.41422003432568105,0.40574932600465863,0.3975918284815872,0.39021200869275824,0.38356022033816106,0.37718010023919823,0.3703457991715665,0.3620994431457528,0.3520297249671929,0.34003821460597433,0.326479356122957,0.31206671729862584,0.2975178122034526,0.2838609187072519,0.271816136158953,0.2617820755708798,0.2537876354256853,0.24737339680161916,0.2421976689775378,0.23771981176455892,0.23346333504675235,0.2291023723317889,0.22429372020244623,0.21931683336322777,0.21428702863166152,0.20930982246093424,0.20441710923789255,0.19929672064427031,0.19413800694328057,0.18870913124061037,0.18279813385992838,0.1763395367186903,0.16920644175807537,0.16227489237733195,0.1561101437070912,0.1512852408005103,0.148261964199488,0.14692065944650673,0.14774727782609953,0.15031379191527777,0.1539065928655797,0.1577255964303178,0.16077918855851492,0.16318280873987848,0.16485941751736763,0.16603445838177291,0.16718922866114758,0.16866117754204685,0.17147781033920173,0.17593689646872981,0.181948559899418,0.1890430284117419,0.19627320148428068,0.2030455669151252,0.20831078116645133,0.21113210331661522,0.21089682816233618,0.20737436736946002,0.20113569410610052,0.19277392741375396,0.18307354271158588,0.1728920323062858,0.16239972886090853,0.15296806122440043,0.14517448184295975,0.13922898326805688,0.13488723645023545,0.13027069736386898,0.12563386737655902,0.12053437081151416,0.11479589517085706,0.10853230602822206,0.10126635346841328,0.09430299181712914,0.08841647682802625,0.08425620757508498,0.08217737560620864,0.08172123994505287,0.08301057766154178,0.08559405513396326,0.08895546921890007,0.09262287480973809,0.09590558794989594,0.09885260106593244,0.10123880012348513,0.10277244459877949,0.10306837401326754,0.10152151670070662,0.0980359724054236,0.09257698700047337,0.08549958395140063,0.07757130428433985,0.06974059155529284,0.06316138002491788,0.05837489687303963,0.05510468676652032,0.052074234555412165,0.04709849615596883,0.037555742769248904,0.020868417780670792,-0.004471592888921015,-0.03797034557977928,-0.07651249308064563,-0.1138579965873638,-0.1414783735344975,-0.14944624198592985,-0.1280149257149707,-0.06963756786129358,0.029724074266234295,0.16859946315842414,0.33965216917313656,0.5301283028355668,0.7231440175857434,0.900612225939459,1.045308544626189,1.143749755356295,1.1882715313861043,1.1778707332890692,1.1188036652688933,1.0225570994049489,0.9038548302913995,0.778031955943257,0.6581995924488815,0.5543964419943106,0.47171826740261225,0.4106129376534822,0.3677923805004098,0.33728261652004454,0.3134346670197153,0.2912713900070157,0.26768794966456083,0.24167810057165434,0.21352814115492927,0.1853354865552628,0.15900409293519055,0.1357374542563498,0.11556382064289884,0.09689836439559918,0.07820790558254766,0.05761540799814335,0.03390121624401411,0.007019587862732843,-0.02209764904130519,-0.050608390769080316,-0.07527370597366358,-0.0929796073785021,-0.10152464491743317,-0.10052504522339277,-0.09057168854457656,-0.07383298575293822,-0.05327940198164531,-0.031973020584497386,-0.012640020640616598,0.0035310342579652175,0.016517564309397402,0.027345932249200285,0.0375786037484384,0.04854305965662602,0.06125832259743188,0.07597831853088696,0.0922026401874386,0.10892466196227336,0.12455949940095898,0.0,0.0,0.0,0.0,0.0,0.0,0.0,0.0,0.0,0.0,0.0,0.0,0.0,0.0,0.0,0.0,0.0,0.0,0.0,0.0,0.0,0.0,0.0,0.0,0.0,0.0,0.0,0.0,0.0,0.0,0.0,0.0,0.0,0.0,0.0,0.0,0.0,0.0,0.0,0.0,0.0,0.0,0.0,0.0,0.0,0.0,0.0,0.0,0.0,0.0,0.0,0.0,0.0,0.0,0.0,0.0,0.0,0.0,0.0
0.6344199558076637,0.6413901612219942,0.6443940374351348,0.6455385630042217,0.6469054885725833,0.6499216446923596,0.6548033216387152,0.6607643981092187,0.6659874340901689,0.6682193347845236,0.6654233335770554,0.6562665584213253,0.6407624978956838,0.6200893682112218,0.5963020567960873,0.5717635348331934,0.5483897232873168,0.5275618874022783,0.50951117454757,0.4934916836107495,0.4781037360893315,0.46160819367527545,0.44293918829215717,0.4215062614421382,0.3975239889343157,0.3719372784601123,0.34596929045917646,0.3213966804506615,0.29947644543306445,0.28091614934891324,0.2657708208308932,0.25328620232491583,0.24284511406963175,0.23337659976027839,0.22393134548022514,0.21391482335676634,0.2029265672203963,0.19167983603353445,0.18075135584130608,0.17073815481900453,0.1620588258826395,0.1544846679599175,0.14825163781525552,0.1428132840885289,0.13748687845609828,0.13171030652296956,0.12485500861577435,0.11774171063308311,0.11095093439181196,0.10524225120303389,0.10136178716329963,0.09935883885477441,0.10010296519149589,0.1032559166414704,0.10804191778146321,0.11347240128132509,0.11811823233902678,0.12198308157009109,0.12461054250555322,0.12579805168500036,0.12558301539935052,0.12370025657809233,0.12117412604003934,0.11823358489544818,0.11500672859185586,0.11159462162360931,0.10764477295755728,0.1040818609231213,0.10114637873249323,0.09898387076952889,0.0976062278478681,0.09635253524150743,0.09563499834477958,0.09515495479560906,0.09459886305875881,0.09375804554729034,0.0923742603903965,0.09100615910574761,0.08993250200271183,0.08946661094444161,0.08990986324671255,0.09154639728476176,0.09455879458943867,0.0987306284159946,0.10363812209829987,0.10876892243112606,0.11372481143291782,0.11822550063624701,0.12203234291985951,0.125104984397368,0.12762798161553957,0.13006109068198063,0.13285136114681212,0.13627051266029733,0.14038163409024942,0.14502025568483964,0.1498520103812733,0.15447049824672898,0.15835836639247836,0.16108640835560176,0.1624125297541397,0.16226236332997193,0.1609039769269384,0.15859793778852582,0.15561334261530482,0.15219101092630644,0.14842424403028662,0.14482561303247132,0.14194931910829214,0.1406279412880437,0.14196949209847312,0.14699124385980447,0.1571104752285368,0.17307559361487362,0.1947908744107328,0.221004769677338,0.24889100717724164,0.27506834972125305,0.29519205511933316,0.304798030976739,0.3000400472562029,0.2780855367508818,0.23873878106664187,0.18383147085278012,0.11735694130999366,0.04493951970853591,-0.027437658799684676,-0.09319438002385891,-0.1472280778072277,-0.18643709811002304,-0.21016100783913108,-0.22062077725115406,-0.22088503184128702,-0.21520684257062578,-0.20769398254902502,-0.201444883678847,-0.19859612787782274,-0.1984000789252802,-0.1990452517962842,-0.19796736333428944,-0.19272875951856294,-0.18248886388525196,-0.16633794114994338,-0.14508493307789005,-0.12049416280728734,-0.09477734376471685,-0.0707163438137885,-0.04905526125663929,-0.03003702030482787,-0.013016058631527641,0.0031740719891292677,0.019040437607285864,0.03614605990409898,0.055041597082696875,0.07566438944291362,0.09740746872061376,0.11877442513286184,0.13931698614874075,0.15842569709837598,0.17584271516765895,0.19164086545209824,0.2057199001540882,0.21886989253040998,0.23155689549540207,0.2441280600283205,0.25676660194478323,0.2691225064183197,0.2816374851853925,0.2944388735850729,0.30775200252508206,0.32189233843746834,0.3367972103651611,0.3531927180934066,0.3711536565111252,0.3904276949064491,0.4104404477952136,0.4301903537983691,0.44910831098231513,0.46675831436220094,0.48318536564029435,0.4989885571529589,0.5151806618018515,0.5329267002786936,0.5533500053370964,0.57696405910378,0.6033220733339663,0.6309108146699565,0.6573492115117487,0.6801608222354941,0.6972892148211736,0.7076555895149738,0.7114797894177395,0.710138885118701,0.7060377353782007,0.7017699696463804,0.6993107446484379,0.6993347654789415,0.7009945493730569,0.7021334598895856,0.6997888108089605,0.6909658997819023,0.673358801270162,0.6461876069180259,0.6102806499224909,0.567971658192237,0.5226028862124423,0.4776794266384319,0.43664782874875335,0.40186309668481085,0.374438337204474,0.3542398726429826,0.33990816506149274,0.33000400903178806,0.32267553890020223,0.31628858371584284,0.3096778073459287,0.30197230628407196,0.2934066594195181,0.28420417943265036,0.27468795771413257,0.2651157420488748,0.25528612875728623,0.24553374349325466,0.23567278179189663,0.22549300775352657,0.2149001439440362,0.20367332245513256,0.19262992411806643,0.18221247440284782,0.17281775044601774,0.16468454583919762,0.15744210209839,0.15140396520359575,0.14609219728953854,0.14092835515769664,0.13544716066594636,0.12903016681737076,0.12250495045074553,0.11625084736781627,0.11070192696940959,0.10620977549269509,0.0,0.0,0.0,0.0,0.0,0.0,0.0,0.0,0.0,0.0,0.0,0.0,0.0,0.0,0.0,0.0,0.0,0.0,0.0,0.0,0.0,0.0,0.0,0.0,0.0,0.0,0.0,0.0,0.0,0.0,0.0,0.0,0.0,0.0,0.0,0.0,0.0,0.0,0.0,0.0,0.0,0.0,0.0,0.0,0.0,0.0,0.0,0.0,0.0,0.0,0.0,0.0,0.0,0.0,0.0,0.0,0.0,0.0,0.0,0.4459080802948328,0.45078703522522073,0.44883732421395134,0.4421486410284056,0.433121166540605,0.42395100657699886,0.41596388134020285,0.41019760787204473,0.4065184821202286,0.4041394123011561,0.40199393285916485,0.39894381358345016,0.39465591161031105,0.3891403060848197,0.3828431621574341,0.37641993332395485,0.370329863109801,0.3649684652086207,0.3602647463441692,0.355778564957238,0.3508459337887449,0.344728300294932,0.3369715646634587,0.3275407284423672,0.31679705972041966,0.30538313465845357,0.29395414488170285,0.28325925852794726,0.27385140862249546,0.26604771001946437,0.2599203355281622,0.2552209937166204,0.25181754960325603,0.2494390745342845,0.24780005148976914,0.24659941153690065,0.24529612104028492,0.2437311995395112,0.24150632625750262,0.23817494367354805,0.23327848754563907,0.22612566964002995,0.21680456471999407,0.20536959046689268,0.19217447702316848,0.17787908846117279,0.16305578151131966,0.14919246517542809,0.13732903897915008,0.12827569229632985,0.12247968937670649,0.11956680273725477,0.11967004752702248,0.12202446855196951,0.12564528513163364,0.12955338566705182,0.13261451574968716,0.13488358340716164,0.1362226605816865,0.1367236200890548,0.13662708195739717,0.13589358091902273,0.1352461641295565,0.13481071440784334,0.1345674588529055,0.13441846163482862,0.13393697907264215,0.13352184554800536,0.13314109642835262,0.1327366511781316,0.13220984131226005,0.1310922968317778,0.1296414633073441,0.12766818589578274,0.12502265744965446,0.12170506619991076,0.11743696514881256,0.1133494938096873,0.11032680507865349,0.10933323410427269,0.11120029108756145,0.11569997811404198,0.12362966729341751,0.13477288575945293,0.14846664674437593,0.16366128022257348,0.178671441868574,0.19251814121033686,0.20395038033445928,0.21199610166950258,0.2161222693575855,0.21631067200614615,0.21317922370370354,0.20752860949732835,0.20035986845308904,0.1927221488525219,0.18555701273454692,0.17961072386427868,0.17510181056228577,0.1718378843799467,0.16932202834745833,0.16694078146856603,0.1641317512444637,0.16042479579711166,0.15563868107451917,0.14995229567288967,0.14383079649982883,0.13814599520104023,0.13368622256872076,0.13107257825187127,0.13058256299832097,0.1318974815256063,0.13455935107822564,0.13758514384676857,0.13988807079540472,0.14063950147682308,0.13949608212607567,0.1374767973124879,0.13655624854775192,0.1397453042928838,0.15069643995532514,0.17283978192078278,0.2091665357464085,0.2607427773723342,0.3262170513632477,0.4014994105053947,0.4796802019876849,0.552524892305042,0.610875564152758,0.6462625950780359,0.6523023810554642,0.6255262882290689,0.5669998615153001,0.48148777262334685,0.37704420997163135,0.26379505441205015,0.15189702624653426,0.05144626772566337,-0.030220544960773102,-0.08907442751854806,-0.12471227223136395,-0.1406795159454323,-0.14149911480113705,-0.13320903662083858,-0.12156089149900162,-0.11096837627521275,-0.10452900343277513,-0.10193740753682383,-0.10159521570635756,-0.10090901847483907,-0.09722448031906154,-0.08926988652745649,-0.07575353892757747,-0.05710652339240218,-0.034802078298980334,-0.010908668714286331,0.01190281782296138,0.032445117377759916,0.049868957602988796,0.06405561020166885,0.07540714289048886,0.08410348612109775,0.09119294723320898,0.09725757774704537,0.10270109943677716,0.10780437888774949,0.11244945582928836,0.11739981957378134,0.12326061185196331,0.13068626426989852,0.14020161488501015,0.151687107594404,0.1652686738414308,0.18037457938124724,0.19613959261585004,0.21164825545642668,0.2257792113873446,0.23901820363741258,0.2520209744216622,0.26611675090690695,0.28309489602784327,0.30420627973618025,0.3317043999839979,0.3660928729474458,0.4065773057914111,0.45105065283575024,0.49596280460262576,0.5381448850368304,0.5741991028467643,0.6015599944968516,0.6190064096436572,0.6266721975936679,0.6264643743185858,0.6212899851957605,0.6143433717289649,0.6082901379837176,0.6044378174762955,0.6029388176277496,0.6026454900668767,0.6015823806262435,0.5975738663237778,0.5887288229443017,0.5743703744448967,0.5550047910482233,0.5321856286051132,0.5080552580122245,0.4845381483073933,0.463439456374628,0.44561234729754223,0.4309544636584578,0.418536649700671,0.4066596779152907,0.39412724189144177,0.37993280434096627,0.36372750184312835,0.34589199563115347,0.32714226863321,0.30914496639773575,0.2934134698528839,0.2812026027937841,0.27324734156163594,0.26934187439651053,0.26924700760658676,0.27199421975719634,0.27635568071634675,0.28109612696681274,0.28488043149096276,0.287472069647354,0.2887706741660668,0.28907530905571877,0.28894491237198944,0.28865034066497103,0.2891646352342594,0.2908121514086978,0.2935823417617409,0.2971481879570037,0.30047193455023197,0.30352397226949407,0.30568879052682973,0.30642588480190175,0.3053514635420181,0.0,0.0,0.0,0.0,0.0,0.0,0.0,0.0,0.0,0.0,0.0,0.0,0.0,0.0,0.0,0.0,0.0,0.0,0.0,0.0,0.0,0.0,0.0,0.0,0.0,0.0,0.0,0.0,0.0,0.0,0.0,0.0,0.0,0.0,0.0,0.0,0.0,0.0,0.0,0.0,0.0,0.0,0.0,0.0,0.0,0.0,0.0,0.0,0.0,0.0,0.0,0.0,0.0,0.0,0.0,0.0,0.0,0.0,0.0
-0.18643709811002304,-0.21016100783913108,-0.22062077725115406,-0.22088503184128702,-0.21520684257062578,-0.20769398254902502,-0.201444883678847,-0.19859612787782274,-0.1984000789252802,-0.1990452517962842,-0.19796736333428944,-0.19272875951856294,-0.18248886388525196,-0.16633794114994338,-0.14508493307789005,-0.12049416280728734,-0.09477734376471685,-0.0707163438137885,-0.04905526125663929,-0.03003702030482787,-0.013016058631527641,0.0031740719891292677,0.019040437607285864,0.03614605990409898,0.055041597082696875,0.07566438944291362,0.09740746872061376,0.11877442513286184,0.13931698614874075,0.15842569709837598,0.17584271516765895,0.19164086545209824,0.2057199001540882,0.21886989253040998,0.23155689549540207,0.2441280600283205,0.25676660194478323,0.2691225064183197,0.2816374851853925,0.2944388735850729,0.30775200252508206,0.32189233843746834,0.3367972103651611,0.3531927180934066,0.3711536565111252,0.3904276949064491,0.4104404477952136,0.4301903537983691,0.44910831098231513,0.46675831436220094,0.48318536564029435,0.4989885571529589,0.5151806618018515,0.5329267002786936,0.5533500053370964,0.57696405910378,0.6033220733339663,0.6309108146699565,0.6573492115117487,0.6801608222354941,0.6972892148211736,0.7076555895149738,0.7114797894177395,0.710138885118701,0.7060377353782007,0.7017699696463804,0.6993107446484379,0.6993347654789415,0.7009945493730569,0.7021334598895856,0.6997888108089605,0.6909658997819023,0.673358801270162,0.6461876069180259,0.6102806499224909,0.567971658192237,0.5226028862124423,0.4776794266384319,0.43664782874875335,0.40186309668481085,0.374438337204474,0.3542398726429826,0.33990816506149274,0.33000400903178806,0.32267553890020223,0.31628858371584284,0.3096778073459287,0.30197230628407196,0.2934066594195181,0.28420417943265036,0.27468795771413257,0.2651157420488748,0.25528612875728623,0.24553374349325466,0.23567278179189663,0.22549300775352657,0.2149001439440362,0.20367332245513256,0.19262992411806643,0.18221247440284782,0.17281775044601774,0.16468454583919762,0.15744210209839,0.15140396520359575,0.14609219728953854,0.14092835515769664,0.13544716066594636,0.12903016681737076,0.12250495045074553,0.11625084736781627,0.11070192696940959,0.10620977549269509,0.10242131122911365,0.09997945390327168,0.0984316802490927,0.09712858902112445,0.09548517112761301,0.09269810774794522,0.08968706599569878,0.08692404553995815,0.08505817552142297,0.08476056676253095,0.08600797607588848,0.08979650101224547,0.09588512211504464,0.10360088812390507,0.11202891155332788,0.11980866253051962,0.1267977866346357,0.1324903926693037,0.13664585140836538,0.13929725634412482,0.14038214128959928,0.14073203146864938,0.14075458026612692,0.14076180920709336,0.14094011527073452,0.14106589341014603,0.14147661300157785,0.14202509132228291,0.14247874425757043,0.14258297419734425,0.14187592605048288,0.14056815585075244,0.1386449012553786,0.13619028863650529,0.13339488294701127,0.1303118431048591,0.12756972056315172,0.12550001161273877,0.12434257790722347,0.1242067916966783,0.12484667627405037,0.126347180992313,0.12845851562689653,0.1308708381052153,0.1332837298109292,0.13520907475590482,0.13686392060528835,0.13840091659226245,0.14011275766487422,0.14236066792518012,0.14515569237893772,0.1490660480043853,0.15425674655210805,0.1606681286830994,0.16797545892917096,0.17538145389735177,0.18235866189400418,0.1881428315961508,0.19204733379337083,0.1935902499331618,0.19248023730425012,0.18900618016455575,0.18364800113201046,0.1771018863728541,0.17015042557563986,0.16340637367772104,0.15756019910454383,0.15288717376007324,0.14936254666847565,0.1467106012181179,0.14438740642494818,0.14210314800291432,0.13948479145484113,0.13632792079774017,0.1326543395617564,0.12859916351521605,0.12474100789735129,0.12154919243058267,0.1194235726457293,0.1185980779053949,0.11896845872308978,0.12045651340599656,0.12261118177721955,0.1248741144237537,0.12674537889726487,0.12779336407933498,0.12834917218732222,0.12900903390308155,0.1307733357947505,0.1348926798891348,0.14238865939406914,0.15446775450939368,0.17153479143757933,0.19316597611716085,0.21800965474832357,0.2435939276170991,0.2674262387037577,0.2865976936386208,0.2984731296288233,0.30112662960751235,0.29336821505812494,0.27588356838112477,0.25030398844932766,0.21921767791115154,0.18575005555584975,0.15268668982583178,0.12315238339772924,0.09914267415752996,0.08160003843659247,0.07037348150418714,0.06394682133652149,0.06114223902294843,0.06027552314311341,0.059898813269500605,0.05905671963955405,0.05683541280448903,0.053951186699066025,0.05106535977526158,0.04886484328976654,0.04773995777492097,0.04694273548758597,0.04655355568344773,0.046000148697808343,0.044758555883160835,0.042585784533402414,0.039004856521642275,0.03535561031920836,0.03296238917885971,0.03326868390577704,0.0,0.0,0.0,0.0,0.0,0.0,0.0,0.0,0.0,0.0,0.0,0.0,0.0,0.0,0.0,0.0,0.0,0.0,0.0,0.0,0.0,0.0,0.0,0.0,0.0,0.0,0.0,0.0,0.0,0.0,0.0,0.0,0.0,0.0,0.0,0.0,0.0,0.0,0.0,0.0,0.0,0.0,0.0,0.0,0.0,0.0,0.0,0.0,0.0,0.0,0.0,0.0,0.0,0.0,0.0,0.0,0.0,0.0,0.0,0.6462625950780359,0.6523023810554642,0.6255262882290689,0.5669998615153001,0.48148777262334685,0.37704420997163135,0.26379505441205015,0.15189702624653426,0.05144626772566337,-0.030220544960773102,-0.08907442751854806,-0.12471227223136395,-0.1406795159454323,-0.14149911480113705,-0.13320903662083858,-0.12156089149900162,-0.11096837627521275,-0.10452900343277513,-0.10193740753682383,-0.10159521570635756,-0.10090901847483907,-0.09722448031906154,-0.08926988652745649,-0.07575353892757747,-0.05710652339240218,-0.034802078298980334,-0.010908668714286331,0.01190281782296138,0.032445117377759916,0.049868957602988796,0.06405561020166885,0.07540714289048886,0.08410348612109775,0.09119294723320898,0.09725757774704537,0.10270109943677716,0.10780437888774949,0.11244945582928836,0.11739981957378134,0.12326061185196331,0.13068626426989852,0.14020161488501015,0.151687107594404,0.1652686738414308,0.18037457938124724,0.19613959261585004,0.21164825545642668,0.2257792113873446,0.23901820363741258,0.2520209744216622,0.26611675090690695,0.28309489602784327,0.30420627973618025,0.3317043999839979,0.3660928729474458,0.4065773057914111,0.45105065283575024,0.49596280460262576,0.5381448850368304,0.5741991028467643,0.6015599944968516,0.6190064096436572,0.6266721975936679,0.6264643743185858,0.6212899851957605,0.6143433717289649,0.6082901379837176,0.6044378174762955,0.6029388176277496,0.6026454900668767,0.6015823806262435,0.5975738663237778,0.5887288229443017,0.5743703744448967,0.5550047910482233,0.5321856286051132,0.5080552580122245,0.4845381483073933,0.463439456374628,0.44561234729754223,0.4309544636584578,0.418536649700671,0.4066596779152907,0.39412724189144177,0.37993280434096627,0.36372750184312835,0.34589199563115347,0.32714226863321,0.30914496639773575,0.2934134698528839,0.2812026027937841,0.27324734156163594,0.26934187439651053,0.26924700760658676,0.27199421975719634,0.27635568071634675,0.28109612696681274,0.28488043149096276,0.287472069647354,0.2887706741660668,0.28907530905571877,0.28894491237198944,0.28865034066497103,0.2891646352342594,0.2908121514086978,0.2935823417617409,0.2971481879570037,0.30047193455023197,0.30352397226949407,0.30568879052682973,0.30642588480190175,0.3053514635420181,0.3016817556109135,0.29626097463401685,0.2893271680946291,0.28123817496572817,0.27248305159696795,0.2630982075334549,0.254548684054995,0.24749787504450357,0.24243254971368586,0.23961463965191787,0.23851301466374683,0.23965344338413425,0.24259093850210173,0.2466858374280123,0.2512377225457347,0.25510424315087693,0.25846411625592425,0.2609992113500976,0.26249936641119537,0.2628608054395514,0.26161582959071344,0.2594438510407412,0.2565354582400203,0.2531129610294083,0.24943740795163008,0.2454092089879482,0.2418307392103147,0.23898925279124356,0.237046751130688,0.2360140104637087,0.23542528400804966,0.23542676427130999,0.2357194235870456,0.23599115678045846,0.2360087508512979,0.2353534262879297,0.23459187697048522,0.23410298776733682,0.2343931305382584,0.2360034912388871,0.23902784692127088,0.24418330129570384,0.25148908974467826,0.2606075432840575,0.27086618700854526,0.2810470192322677,0.2905074938324575,0.29826014859220623,0.30349536481073935,0.3057288827782034,0.3046590811565951,0.300950393777707,0.29521623248008705,0.288222267224068,0.2807682795860544,0.2729780567901309,0.2661172561725563,0.26078052578466143,0.2573255561383842,0.25580767639390534,0.2549770118324721,0.2553398410621215,0.2566874442520461,0.2588219756749948,0.2615154113342091,0.2637983708411943,0.26591234454789053,0.26749031515704874,0.2680860331447293,0.2672231462745128,0.264179721335865,0.25909465722670133,0.2520137958129131,0.24328622978799133,0.23356483756150823,0.22344653182076338,0.21426314855001163,0.20691763954656917,0.20204243299519775,0.1999065288485036,0.20014251691424545,0.20268630636905058,0.20697744880328492,0.2123938539901621,0.21835883705537443,0.2241663132550629,0.22962702903158955,0.23415591206186936,0.23692329150270766,0.23681114526224523,0.23233532144865407,0.2223966523038874,0.2059732985033274,0.18282684733635432,0.1539935465486883,0.12196142523641479,0.0914530621702727,0.06836427381820204,0.059413566270321114,0.07117594783513143,0.1086617712102343,0.17492120338545952,0.26911208162794903,0.38634015802465693,0.517840515837496,0.6516085457279867,0.7747473744912959,0.8743718036150001,0.9398614995740203,0.9645050838398604,0.9462551152774045,0.8888381453300899,0.8001323879372143,0.6911182315381681,0.5740833258940677,0.46035608254823945,0.3599337486075949,0.2791556772498824,0.2206650507279192,0.18366156794827507,0.16419281291900353,0.15785123906718476,0.15942656727245944,0.164308648049996,0.16908487428059843,0.17118093023663877,0.17041342578844587,0.16701171333480586,0.16155369982667,0.0,0.0,0.0,0.0,0.0,0.0,0.0,0.0,0.0,0.0,0.0,0.0,0.0,0.0,0.0,0.0,0.0,0.0,0.0,0.0,0.0,0.0,0.0,0.0,0.0,0.0,0.0,0.0,0.0,0.0,0.0,0.0,0.0,0.0,0.0,0.0,0.0,0.0,0.0,0.0,0.0,0.0,0.0,0.0,0.0,0.0,0.0,0.0,0.0,0.0,0.0,0.0,0.0,0.0,0.0,0.0,0.0,0.0,0.0
0.29336821505812494,0.27588356838112477,0.25030398844932766,0.21921767791115154,0.18575005555584975,0.15268668982583178,0.12315238339772924,0.09914267415752996,0.08160003843659247,0.07037348150418714,0.06394682133652149,0.06114223902294843,0.06027552314311341,0.059898813269500605,0.05905671963955405,0.05683541280448903,0.053951186699066025,0.05106535977526158,0.04886484328976654,0.04773995777492097,0.04694273548758597,0.04655355568344773,0.046000148697808343,0.044758555883160835,0.042585784533402414,0.039004856521642275,0.03535561031920836,0.03296238917885971,0.03326868390577704,0.03743161129188387,0.04528669191490245,0.057265993477409724,0.07270799466955286,0.0904784014654032,0.1092052943323397,0.12695890560443068,0.1432393254846856,0.15761611579959908,0.1700983178576121,0.18097897737279556,0.19017086047243237,0.19848720073505416,0.20630915509435216,0.21390138906491762,0.22142660411459258,0.22856437288899492,0.23591186963224092,0.24373643847429852,0.2523184686318292,0.2618742308563896,0.2720809793125553,0.283274657683214,0.29515172294337766,0.30724621687720843,0.31907490864436405,0.33004625595665027,0.34051404785014444,0.3510092145500009,0.3625049005414335,0.37627558643233844,0.3934642156039341,0.41522930956317927,0.4419315985728796,0.47301315030509006,0.5069381646655788,0.5412827270496532,0.5734924973647328,0.6011498120473993,0.6226477619423647,0.6376007428988192,0.6469040182137977,0.6526252470039994,0.6572631330073448,0.6630645906157943,0.6713304046479328,0.6819422409192919,0.6933968588211681,0.7030457381010383,0.7078217791085286,0.7050600663970463,0.6932121876367696,0.6723036757033187,0.6438753918188392,0.6106276414626863,0.5757649099007233,0.5421358633513141,0.5120282441794971,0.48638663468253684,0.46493628308741,0.44646975340440026,0.42908356272183035,0.41148621058288165,0.39262168179695633,0.37214469003204603,0.3504201751419836,0.3283188467592054,0.30701494883390973,0.28734933269935564,0.26978407077360644,0.25437059687956703,0.24106517617493115,0.22930989607195934,0.21835021001960556,0.20748156048699734,0.19624106953180012,0.1845104330966684,0.1726282350568142,0.16082500073374997,0.1492969399901132,0.1381115421840332,0.1269353960879004,0.11588273777095467,0.1045643194715639,0.09262125480614515,0.07991708433400922,0.06634328910096464,0.05300838945258362,0.04067244359746417,0.030070916481167557,0.021722626483985208,0.015341162958632295,0.011279709821256985,0.008729532279942854,0.006601309839141979,0.003891230386393516,-0.00038660474294118375,-0.005395424731289587,-0.010316732449704059,-0.013754062623224136,-0.013940165711198174,-0.009512241402128845,0.001658915718904267,0.020093177544314732,0.04513982199918488,0.07491062811125428,0.1060111322811237,0.1350586813042923,0.1574365032000971,0.1684011084703008,0.16376142193370677,0.14031034047632499,0.09744832046598688,0.036370176590392,-0.03932005043698135,-0.12377220217946457,-0.20967922592140278,-0.28837746109744644,-0.3519941246345794,-0.3942351816260393,-0.41130582629263585,-0.40263165540914847,-0.3702732934983155,-0.3192394653072387,-0.2563361533145797,-0.1890167971356932,-0.1243646846677833,-0.06758023258486917,-0.021997782695684143,0.011305016104686878,0.033272232021249466,0.04617725257013012,0.05332279952533298,0.057804528200424046,0.06206959794899786,0.0675628467760735,0.0745371187161475,0.08258695277504442,0.09062269216128703,0.09739153542538403,0.10185346153089753,0.10334947167603782,0.10199492891733199,0.09837968252876736,0.0934432683807777,0.08821274308624416,0.0834406871469043,0.07973208419990793,0.07722375932799862,0.07567289684600725,0.07457202464159078,0.0732021224915722,0.07114704798222082,0.06818613168713757,0.0643961583533314,0.060105097540283196,0.05563549046251657,0.051635538757120875,0.048520467713710984,0.04651791565937986,0.045638170438975605,0.0455225971523202,0.04610522756118873,0.047067605416350654,0.04812606659042094,0.04909295493433533,0.04987276248078872,0.050456125469883054,0.05099404474760797,0.0516548598741074,0.05254773942969505,0.0538095436246511,0.0550392697992972,0.05620689734882808,0.05731994374690442,0.05839703748429433,0.05947740417994054,0.060467265542320084,0.061478667081395745,0.06267953688558486,0.06424633553889363,0.06622877989715349,0.06875458199674522,0.0717787884234755,0.07515370254031871,0.0786621009775276,0.08197691826230298,0.08504409296773491,0.08782546338946721,0.09042503170793628,0.09307786641616157,0.09598210290963805,0.09959445952171718,0.10413063651889477,0.10961166486887347,0.11582074058391312,0.12218158813303334,0.12824031441403447,0.1333519586424379,0.13693067222910146,0.13856361475166465,0.13794568707622876,0.13536657647940725,0.13124761998884762,0.12618259471899418,0.1208172017919098,0.11559160368962271,0.11106515391374151,0.10747828147775802,0.10486096216394612,0.10307078883215497,0.10173684336331666,0.0,0.0,0.0,0.0,0.0,0.0,0.0,0.0,0.0,0.0,0.0,0.0,0.0,0.0,0.0,0.0,0.0,0.0,0.0,0.0,0.0,0.0,0.0,0.0,0.0,0.0,0.0,0.0,0.0,0.0,0.0,0.0,0.0,0.0,0.0,0.0,0.0,0.0,0.0,0.0,0.0,0.0,0.0,0.0,0.0,0.0,0.0,0.0,0.0,0.0,0.0,0.0,0.0,0.0,0.0,0.0,0.0,0.0,0.0,0.1086617712102343,0.17492120338545952,0.26911208162794903,0.38634015802465693,0.517840515837496,0.6516085457279867,0.7747473744912959,0.8743718036150001,0.9398614995740203,0.9645050838398604,0.9462551152774045,0.8888381453300899,0.8001323879372143,0.6911182315381681,0.5740833258940677,0.46035608254823945,0.3599337486075949,0.2791556772498824,0.2206650507279192,0.18366156794827507,0.16419281291900353,0.15785123906718476,0.15942656727245944,0.164308648049996,0.16908487428059843,0.17118093023663877,0.17041342578844587,0.16701171333480586,0.16155369982667,0.15450818061292176,0.14537445401710997,0.13452377635512844,0.12176915283450859,0.1070987181132131,0.09090476384005691,0.07350821997109142,0.056857404862622696,0.042670044647972485,0.03249437290848431,0.027301347067192068,0.02666028015089102,0.03040082005422979,0.03724071713422362,0.045594199249064944,0.05398039755624209,0.06090299349376546,0.06646537213648103,0.07107174979786668,0.07552707020462247,0.08065944804529214,0.08658202217228309,0.0936417333785434,0.10146181478626805,0.10937813380816601,0.11673167966234074,0.12259589422426478,0.1279844113840275,0.13384836556534344,0.14160030636314974,0.15280391127938936,0.16795753870843044,0.18887923247847424,0.2152732568049571,0.2458061293905959,0.27839838113072046,0.31012034183781684,0.3395800143276146,0.365289763816176,0.3866390723733838,0.40399285098205157,0.41823370172668844,0.43139434480223066,0.4452083480837824,0.46089752851929255,0.47879324315252386,0.4979015942109096,0.5169464766375378,0.5338646332184555,0.546592886778609,0.5535936353229962,0.5539809444640926,0.5484995410232222,0.5385842912540758,0.5262276280527945,0.5134766979898365,0.5016664585922741,0.491958913185759,0.48447360805153034,0.47861639064221556,0.4733597606566768,0.46729593979111994,0.45987384790019287,0.45087788587301464,0.44061931052743,0.42976778597755644,0.41866550255187385,0.4083739347581318,0.39944749254266176,0.3920984947419819,0.38617581129843603,0.38068250295181666,0.3756008592806473,0.37067006928441937,0.3658035429184707,0.36104036470139234,0.35619926674095714,0.35149684476398224,0.34677977666976406,0.3417237316532558,0.33590491810434864,0.3290119490846589,0.320773492343194,0.31105512093320953,0.29999308808751524,0.28803141199513715,0.2759005110236648,0.2645427617771574,0.2546010625016876,0.24645416010045276,0.24015790588592573,0.23540506665134517,0.23189676957218902,0.22880573763853024,0.22529745464361614,0.22081944940618084,0.2152461251678406,0.20945729546622996,0.20440563864055844,0.20132142385449484,0.20148099292643593,0.20576822776055642,0.21500919253454828,0.22867981765827639,0.2453853245537486,0.2631830086430028,0.2799466059882807,0.29455250651488996,0.30633669535583946,0.3158416008924361,0.3248850243595698,0.33611189312132195,0.3529331527995322,0.3776553905627765,0.4110128235825171,0.4515824227461651,0.4954279696323219,0.5371085493014801,0.569470617710689,0.5852169245266948,0.5782798211327604,0.5448492524808797,0.48499785921006905,0.40191079984990274,0.30189012076093064,0.1934440778896079,0.08576536286022478,-0.011958447821341952,-0.09285545133536449,-0.15292989808526647,-0.1913916653535446,-0.21060322330440678,-0.21456245044962063,-0.20877449704427456,-0.19875030477242003,-0.18898584324290743,-0.18250883764574907,-0.1799921284035226,-0.18087974630141623,-0.18366615850243084,-0.1865800211322703,-0.18838375246306036,-0.18810165155485414,-0.18586838934136424,-0.18246092271641645,-0.1788997117709102,-0.176218927028419,-0.17450175381263197,-0.17353937725130167,-0.17270459131620275,-0.17121940240955014,-0.1686646679913393,-0.16454735123347256,-0.1591107957618762,-0.1529840745020098,-0.14692331277729664,-0.14176724889979986,-0.13731716413462858,-0.13320037441357696,-0.12863154217792308,-0.12262722314504312,-0.11461930312135532,-0.1036441757146563,-0.08970518708368887,-0.073406631583246,-0.05581754422439851,-0.03862230827437788,-0.022526918010721212,-0.008539648852307055,0.002697831067568025,0.010992134696246096,0.016126125478917872,0.019325100753270336,0.021275775943565927,0.022625425513713052,0.02391398577429414,0.025311726752975716,0.02731871527702138,0.02999647225733185,0.03323970615967486,0.03683583685234219,0.04055082454582685,0.044073576503708155,0.0473603306314753,0.050486830110299315,0.0535826429734259,0.05674049413263527,0.059940833610159804,0.06325707322383396,0.06672609826788069,0.07032944909450961,0.07394052782929972,0.07741314666340961,0.08075016831491537,0.08399938486520381,0.08721479281988148,0.09036170264287363,0.0934384536340247,0.09659842730530555,0.1000668306329507,0.10410013654525335,0.10884762942773676,0.11446211081448275,0.12109289544723217,0.12873773144127532,0.1371640457321536,0.14581006950047126,0.1540008225384899,0.16110539552093858,0.16661210661854012,0.17022795491905382,0.1718683040017272,0.0,0.0,0.0,0.0,0.0,0.0,0.0,0.0,0.0,0.0,0.0,0.0,0.0,0.0,0.0,0.0,0.0,0.0,0.0,0.0,0.0,0.0,0.0,0.0,0.0,0.0,0.0,0.0,0.0,0.0,0.0,0.0,0.0,0.0,0.0,0.0,0.0,0.0,0.0,0.0,0.0,0.0,0.0,0.0,0.0,0.0,0.0,0.0,0.0,0.0,0.0,0.0,0.0,0.0,0.0,0.0,0.0,0.0,0.0
0.6376007428988192,0.6469040182137977,0.6526252470039994,0.6572631330073448,0.6630645906157943,0.6713304046479328,0.6819422409192919,0.6933968588211681,0.7030457381010383,0.7078217791085286,0.7050600663970463,0.6932121876367696,0.6723036757033187,0.6438753918188392,0.6106276414626863,0.5757649099007233,0.5421358633513141,0.5120282441794971,0.48638663468253684,0.46493628308741,0.44646975340440026,0.42908356272183035,0.41148621058288165,0.39262168179695633,0.37214469003204603,0.3504201751419836,0.3283188467592054,0.30701494883390973,0.28734933269935564,0.26978407077360644,0.25437059687956703,0.24106517617493115,0.22930989607195934,0.21835021001960556,0.20748156048699734,0.19624106953180012,0.1845104330966684,0.1726282350568142,0.16082500073374997,0.1492969399901132,0.1381115421840332,0.1269353960879004,0.11588273777095467,0.1045643194715639,0.09262125480614515,0.07991708433400922,0.06634328910096464,0.05300838945258362,0.04067244359746417,0.030070916481167557,0.021722626483985208,0.015341162958632295,0.011279709821256985,0.008729532279942854,0.006601309839141979,0.003891230386393516,-0.00038660474294118375,-0.005395424731289587,-0.010316732449704059,-0.013754062623224136,-0.013940165711198174,-0.009512241402128845,0.001658915718904267,0.020093177544314732,0.04513982199918488,0.07491062811125428,0.1060111322811237,0.1350586813042923,0.1574365032000971,0.1684011084703008,0.16376142193370677,0.14031034047632499,0.09744832046598688,0.036370176590392,-0.03932005043698135,-0.12377220217946457,-0.20967922592140278,-0.28837746109744644,-0.3519941246345794,-0.3942351816260393,-0.41130582629263585,-0.40263165540914847,-0.3702732934983155,-0.3192394653072387,-0.2563361533145797,-0.1890167971356932,-0.1243646846677833,-0.06758023258486917,-0.021997782695684143,0.011305016104686878,0.033272232021249466,0.04617725257013012,0.05332279952533298,0.057804528200424046,0.06206959794899786,0.0675628467760735,0.0745371187161475,0.08258695277504442,0.09062269216128703,0.09739153542538403,0.10185346153089753,0.10334947167603782,0.10199492891733199,0.09837968252876736,0.0934432683807777,0.08821274308624416,0.0834406871469043,0.07973208419990793,0.07722375932799862,0.07567289684600725,0.07457202464159078,0.0732021224915722,0.07114704798222082,0.06818613168713757,0.0643961583533314,0.060105097540283196,0.05563549046251657,0.051635538757120875,0.048520467713710984,0.04651791565937986,0.045638170438975605,0.0455225971523202,0.04610522756118873,0.047067605416350654,0.04812606659042094,0.04909295493433533,0.04987276248078872,0.050456125469883054,0.05099404474760797,0.0516548598741074,0.05254773942969505,0.0538095436246511,0.0550392697992972,0.05620689734882808,0.05731994374690442,0.05839703748429433,0.05947740417994054,0.060467265542320084,0.061478667081395745,0.06267953688558486,0.06424633553889363,0.06622877989715349,0.06875458199674522,0.0717787884234755,0.07515370254031871,0.0786621009775276,0.08197691826230298,0.08504409296773491,0.08782546338946721,0.09042503170793628,0.09307786641616157,0.09598210290963805,0.09959445952171718,0.10413063651889477,0.10961166486887347,0.11582074058391312,0.12218158813303334,0.12824031441403447,0.1333519586424379,0.13693067222910146,0.13856361475166465,0.13794568707622876,0.13536657647940725,0.13124761998884762,0.12618259471899418,0.1208172017919098,0.11559160368962271,0.11106515391374151,0.10747828147775802,0.10486096216394612,0.10307078883215497,0.10173684336331666,0.10071977325716408,0.09983346635496002,0.098972261925096,0.09810361077321694,0.09707205246582354,0.09605590299188004,0.09508983565074514,0.09415008443965293,0.09313643271427893,0.09168256220316148,0.08981597171286354,0.08748403640174783,0.08473507025908882,0.08172142129294048,0.07819233025258393,0.07488552422468776,0.07227238330762999,0.07071455077161584,0.07030640987160201,0.07002996234735341,0.07006101537920223,0.07009462087368121,0.0699180674275415,0.06946393029084823,0.06802639001288384,0.06658290426716694,0.06580713570831606,0.06635412486460288,0.06862145071009441,0.07177106469679094,0.07616460955749262,0.08149903577315598,0.08743171169381728,0.09364561305891976,0.0993201482346993,0.1047501521684434,0.10988961485719433,0.11462112080641443,0.1186697754077451,0.12132952466357506,0.12241459607615687,0.12163627193610593,0.11902851707436822,0.11507159601089531,0.1106254449973071,0.10701567345871474,0.10545073527294709,0.10682726612797873,0.11147341661404549,0.1189615717239662,0.12835411108289915,0.1381718284684665,0.1468973065048165,0.153479817927286,0.15777076242690735,0.1610597754129818,0.16590532217095105,0.1759814785912317,0.19548621924052645,0.22821441556681848,0.27673579512550184,0.3412585701979955,0.4192016732258538,0.5052735034331592,0.5921815314269114,0.6721260560405005,0.7382263295120481,0.7861379374296926,0.8150607876257921,0.0,0.0,0.0,0.0,0.0,0.0,0.0,0.0,0.0,0.0,0.0,0.0,0.0,0.0,0.0,0.0,0.0,0.0,0.0,0.0,0.0,0.0,0.0,0.0,0.0,0.0,0.0,0.0,0.0,0.0,0.0,0.0,0.0,0.0,0.0,0.0,0.0,0.0,0.0,0.0,0.0,0.0,0.0,0.0,0.0,0.0,0.0,0.0,0.0,0.0,0.0,0.0,0.0,0.0,0.0,0.0,0.0,0.0,0.0,0.40399285098205157,0.41823370172668844,0.43139434480223066,0.4452083480837824,0.46089752851929255,0.47879324315252386,0.4979015942109096,0.5169464766375378,0.5338646332184555,0.546592886778609,0.5535936353229962,0.5539809444640926,0.5484995410232222,0.5385842912540758,0.5262276280527945,0.5134766979898365,0.5016664585922741,0.491958913185759,0.48447360805153034,0.47861639064221556,0.4733597606566768,0.46729593979111994,0.45987384790019287,0.45087788587301464,0.44061931052743,0.42976778597755644,0.41866550255187385,0.4083739347581318,0.39944749254266176,0.3920984947419819,0.38617581129843603,0.38068250295181666,0.3756008592806473,0.37067006928441937,0.3658035429184707,0.36104036470139234,0.35619926674095714,0.35149684476398224,0.34677977666976406,0.3417237316532558,0.33590491810434864,0.3290119490846589,0.320773492343194,0.31105512093320953,0.29999308808751524,0.28803141199513715,0.2759005110236648,0.2645427617771574,0.2546010625016876,0.24645416010045276,0.24015790588592573,0.23540506665134517,0.23189676957218902,0.22880573763853024,0.22529745464361614,0.22081944940618084,0.2152461251678406,0.20945729546622996,0.20440563864055844,0.20132142385449484,0.20148099292643593,0.20576822776055642,0.21500919253454828,0.22867981765827639,0.2453853245537486,0.2631830086430028,0.2799466059882807,0.29455250651488996,0.30633669535583946,0.3158416008924361,0.3248850243595698,0.33611189312132195,0.3529331527995322,0.3776553905627765,0.4110128235825171,0.4515824227461651,0.4954279696323219,0.5371085493014801,0.569470617710689,0.5852169245266948,0.5782798211327604,0.5448492524808797,0.48499785921006905,0.40191079984990274,0.30189012076093064,0.1934440778896079,0.08576536286022478,-0.011958447821341952,-0.09285545133536449,-0.15292989808526647,-0.1913916653535446,-0.21060322330440678,-0.21456245044962063,-0.20877449704427456,-0.19875030477242003,-0.18898584324290743,-0.18250883764574907,-0.1799921284035226,-0.18087974630141623,-0.18366615850243084,-0.1865800211322703,-0.18838375246306036,-0.18810165155485414,-0.18586838934136424,-0.18246092271641645,-0.1788997117709102,-0.176218927028419,-0.17450175381263197,-0.17353937725130167,-0.17270459131620275,-0.17121940240955014,-0.1686646679913393,-0.16454735123347256,-0.1591107957618762,-0.1529840745020098,-0.14692331277729664,-0.14176724889979986,-0.13731716413462858,-0.13320037441357696,-0.12863154217792308,-0.12262722314504312,-0.11461930312135532,-0.1036441757146563,-0.08970518708368887,-0.073406631583246,-0.05581754422439851,-0.03862230827437788,-0.022526918010721212,-0.008539648852307055,0.002697831067568025,0.010992134696246096,0.016126125478917872,0.019325100753270336,0.021275775943565927,0.022625425513713052,0.02391398577429414,0.025311726752975716,0.02731871527702138,0.02999647225733185,0.03323970615967486,0.03683583685234219,0.04055082454582685,0.044073576503708155,0.0473603306314753,0.050486830110299315,0.0535826429734259,0.05674049413263527,0.059940833610159804,0.06325707322383396,0.06672609826788069,0.07032944909450961,0.07394052782929972,0.07741314666340961,0.08075016831491537,0.08399938486520381,0.08721479281988148,0.09036170264287363,0.0934384536340247,0.09659842730530555,0.1000668306329507,0.10410013654525335,0.10884762942773676,0.11446211081448275,0.12109289544723217,0.12873773144127532,0.1371640457321536,0.14581006950047126,0.1540008225384899,0.16110539552093858,0.16661210661854012,0.17022795491905382,0.1718683040017272,0.17180912099546133,0.17063698214627587,0.16905787660221414,0.16769993707572026,0.1668697938685836,0.1666151703643606,0.16664386102228843,0.1663948779114713,0.16517191923238667,0.162251713601852,0.15724250016236888,0.15005558612915967,0.141001500903561,0.13076217819607422,0.12004685043000254,0.11018543897522114,0.1023597859157977,0.0975515297626404,0.09635243715976179,0.09841339354500522,0.1037173124521076,0.11163141437985323,0.12127971454756926,0.13166412114399415,0.14068146904242582,0.14857506177714286,0.15537968402735072,0.16141290775415468,0.16697580512822646,0.17029110632469288,0.17277251138795163,0.1748936165682695,0.17718046617965605,0.18004435172925676,0.1820876783753999,0.18446922450593087,0.18729491900217243,0.19037593323345853,0.19311289833028703,0.19331961416853533,0.19108965142507683,0.1862387650555617,0.1792318315785223,0.17112639494729254,0.16321327114129658,0.15685013241957113,0.15267190480853898,0.1504568103027138,0.14913989156429802,0.1470116230857524,0.14252704061132682,0.1343857149902279,0.1221308433401283,0.10641004685367443,0.0889218409642424,0.07256976221905583,0.06068480685834188,0.056719025258749334,0.06368020214305087,0.08339750914524507,0.11620988464110357,0.16010517005224512,0.21091739619330901,0.26307377801855675,0.3110257299057332,0.35153253334236934,0.38533844470454887,0.41855962586347273,0.46246735389406257,0.0,0.0,0.0,0.0,0.0,0.0,0.0,0.0,0.0,0.0,0.0,0.0,0.0,0.0,0.0,0.0,0.0,0.0,0.0,0.0,0.0,0.0,0.0,0.0,0.0,0.0,0.0,0.0,0.0,0.0,0.0,0.0,0.0,0.0,0.0,0.0,0.0,0.0,0.0,0.0,0.0,0.0,0.0,0.0,0.0,0.0,0.0,0.0,0.0,0.0,0.0,0.0,0.0,0.0,0.0,0.0,0.0,0.0,0.0
-0.28837746109744644,-0.3519941246345794,-0.3942351816260393,-0.41130582629263585,-0.40263165540914847,-0.3702732934983155,-0.3192394653072387,-0.2563361533145797,-0.1890167971356932,-0.1243646846677833,-0.06758023258486917,-0.021997782695684143,0.011305016104686878,0.033272232021249466,0.04617725257013012,0.05332279952533298,0.057804528200424046,0.06206959794899786,0.0675628467760735,0.0745371187161475,0.08258695277504442,0.09062269216128703,0.09739153542538403,0.10185346153089753,0.10334947167603782,0.10199492891733199,0.09837968252876736,0.0934432683807777,0.08821274308624416,0.0834406871469043,0.07973208419990793,0.07722375932799862,0.07567289684600725,0.07457202464159078,0.0732021224915722,0.07114704798222082,0.06818613168713757,0.0643961583533314,0.060105097540283196,0.05563549046251657,0.051635538757120875,0.048520467713710984,0.04651791565937986,0.045638170438975605,0.0455225971523202,0.04610522756118873,0.047067605416350654,0.04812606659042094,0.04909295493433533,0.04987276248078872,0.050456125469883054,0.05099404474760797,0.0516548598741074,0.05254773942969505,0.0538095436246511,0.0550392697992972,0.05620689734882808,0.05731994374690442,0.05839703748429433,0.05947740417994054,0.060467265542320084,0.061478667081395745,0.06267953688558486,0.06424633553889363,0.06622877989715349,0.06875458199674522,0.0717787884234755,0.07515370254031871,0.0786621009775276,0.08197691826230298,0.08504409296773491,0.08782546338946721,0.09042503170793628,0.09307786641616157,0.09598210290963805,0.09959445952171718,0.10413063651889477,0.10961166486887347,0.11582074058391312,0.12218158813303334,0.12824031441403447,0.1333519586424379,0.13693067222910146,0.13856361475166465,0.13794568707622876,0.13536657647940725,0.13124761998884762,0.12618259471899418,0.1208172017919098,0.11559160368962271,0.11106515391374151,0.10747828147775802,0.10486096216394612,0.10307078883215497,0.10173684336331666,0.10071977325716408,0.09983346635496002,0.098972261925096,0.09810361077321694,0.09707205246582354,0.09605590299188004,0.09508983565074514,0.09415008443965293,0.09313643271427893,0.09168256220316148,0.08981597171286354,0.08748403640174783,0.08473507025908882,0.08172142129294048,0.07819233025258393,0.07488552422468776,0.07227238330762999,0.07071455077161584,0.07030640987160201,0.07002996234735341,0.07006101537920223,0.07009462087368121,0.0699180674275415,0.06946393029084823,0.06802639001288384,0.06658290426716694,0.06580713570831606,0.06635412486460288,0.06862145071009441,0.07177106469679094,0.07616460955749262,0.08149903577315598,0.08743171169381728,0.09364561305891976,0.0993201482346993,0.1047501521684434,0.10988961485719433,0.11462112080641443,0.1186697754077451,0.12132952466357506,0.12241459607615687,0.12163627193610593,0.11902851707436822,0.11507159601089531,0.1106254449973071,0.10701567345871474,0.10545073527294709,0.10682726612797873,0.11147341661404549,0.1189615717239662,0.12835411108289915,0.1381718284684665,0.1468973065048165,0.153479817927286,0.15777076242690735,0.1610597754129818,0.16590532217095105,0.1759814785912317,0.19548621924052645,0.22821441556681848,0.27673579512550184,0.3412585701979955,0.4192016732258538,0.5052735034331592,0.5921815314269114,0.6721260560405005,0.7382263295120481,0.7861379374296926,0.8150607876257921,0.8278399117701772,0.8302628123278356,0.829235536489619,0.8308445779944021,0.8385622270949004,0.8521569261211268,0.8678487268380546,0.8792322393762426,0.879210350779314,0.8620636665640086,0.8250515492805861,0.7692642290831888,0.6990569319172988,0.6207979934828266,0.5410884344489133,0.4650560314598894,0.395524691911706,0.3326741741419925,0.27490098178676486,0.22011320233381806,0.16696932585836244,0.1159382796928934,0.06906563640645234,0.029424530570774744,0.0,0.0,0.0,0.0,0.0,0.0,0.0,0.0,0.0,0.0,0.0,0.0,0.0,0.0,0.0,0.0,0.0,0.0,0.0,0.0,0.0,0.0,0.0,0.0,0.0,0.0,0.0,0.0,0.0,0.0,0.0,0.0,0.0,0.0,0.0,0.0,0.0,0.0,0.0,0.0,0.0,0.0,0.0,0.0,0.0,0.0,0.0,0.0,0.0,0.0,0.0,0.0,0.0,0.0,0.0,0.0,0.0,0.0,0.0,0.0,0.0,0.0,0.0,0.0,0.0,0.0,0.0,0.0,0.0,0.0,0.0,0.0,0.0,0.0,0.0,0.0,0.0,0.0,0.0,0.0,0.0,0.0,0.0,0.0,0.0,0.0,0.0,0.0,0.0,0.0,0.0,0.0,0.0,0.0,0.0,0.0,0.0,0.0,0.0,0.0,0.0,0.0,0.0,0.0,0.0,0.0,0.0,0.0,0.0,0.0,0.0,0.0,0.5371085493014801,0.569470617710689,0.5852169245266948,0.5782798211327604,0.5448492524808797,0.48499785921006905,0.40191079984990274,0.30189012076093064,0.1934440778896079,0.08576536286022478,-0.011958447821341952,-0.09285545133536449,-0.15292989808526647,-0.1913916653535446,-0.21060322330440678,-0.21456245044962063,-0.20877449704427456,-0.19875030477242003,-0.18898584324290743,-0.18250883764574907,-0.1799921284035226,-0.18087974630141623,-0.18366615850243084,-0.1865800211322703,-0.18838375246306036,-0.18810165155485414,-0.18586838934136424,-0.18246092271641645,-0.1788997117709102,-0.176218927028419,-0.17450175381263197,-0.17353937725130167,-0.17270459131620275,-0.17121940240955014,-0.1686646679913393,-0.16454735123347256,-0.1591107957618762,-0.1529840745020098,-0.14692331277729664,-0.14176724889979986,-0.13731716413462858,-0.13320037441357696,-0.12863154217792308,-0.12262722314504312,-0.11461930312135532,-0.1036441757146563,-0.08970518708368887,-0.073406631583246,-0.05581754422439851,-0.03862230827437788,-0.022526918010721212,-0.008539648852307055,0.002697831067568025,0.010992134696246096,0.016126125478917872,0.019325100753270336,0.021275775943565927,0.022625425513713052,0.02391398577429414,0.025311726752975716,0.02731871527702138,0.02999647225733185,0.03323970615967486,0.03683583685234219,0.04055082454582685,0.044073576503708155,0.0473603306314753,0.050486830110299315,0.0535826429734259,0.05674049413263527,0.059940833610159804,0.06325707322383396,0.06672609826788069,0.07032944909450961,0.07394052782929972,0.07741314666340961,0.08075016831491537,0.08399938486520381,0.08721479281988148,0.09036170264287363,0.0934384536340247,0.09659842730530555,0.1000668306329507,0.10410013654525335,0.10884762942773676,0.11446211081448275,0.12109289544723217,0.12873773144127532,0.1371640457321536,0.14581006950047126,0.1540008225384899,0.16110539552093858,0.16661210661854012,0.17022795491905382,0.1718683040017272,0.17180912099546133,0.17063698214627587,0.16905787660221414,0.16769993707572026,0.1668697938685836,0.1666151703643606,0.16664386102228843,0.1663948779114713,0.16517191923238667,0.162251713601852,0.15724250016236888,0.15005558612915967,0.141001500903561,0.13076217819607422,0.12004685043000254,0.11018543897522114,0.1023597859157977,0.0975515297626404,0.09635243715976179,0.09841339354500522,0.1037173124521076,0.11163141437985323,0.12127971454756926,0.13166412114399415,0.14068146904242582,0.14857506177714286,0.15537968402735072,0.16141290775415468,0.16697580512822646,0.17029110632469288,0.17277251138795163,0.1748936165682695,0.17718046617965605,0.18004435172925676,0.1820876783753999,0.18446922450593087,0.18729491900217243,0.19037593323345853,0.19311289833028703,0.19331961416853533,0.19108965142507683,0.1862387650555617,0.1792318315785223,0.17112639494729254,0.16321327114129658,0.15685013241957113,0.15267190480853898,0.1504568103027138,0.14913989156429802,0.1470116230857524,0.14252704061132682,0.1343857149902279,0.1221308433401283,0.10641004685367443,0.0889218409642424,0.07256976221905583,0.06068480685834188,0.056719025258749334,0.06368020214305087,0.08339750914524507,0.11620988464110357,0.16010517005224512,0.21091739619330901,0.26307377801855675,0.3110257299057332,0.35153253334236934,0.38533844470454887,0.41855962586347273,0.46246735389406257,0.5313265489320425,0.6387669504475576,0.7928805234750862,0.9922250932463079,1.223811571551826,1.4641753379548195,1.6841172356501144,1.8552590867047618,1.9575987500172811,1.9851557892095897,1.9477417266470194,1.8684294318981371,1.776118155789158,1.696567696456948,1.6440252118085381,1.616295964684872,1.595570814632148,1.5538242104069626,1.4625326335400701,1.3028946344074868,1.0732713050981442,0.7918909669648232,0.49259098247486705,0.21628298420109454,0.0,0.0,0.0,0.0,0.0,0.0,0.0,0.0,0.0,0.0,0.0,0.0,0.0,0.0,0.0,0.0,0.0,0.0,0.0,0.0,0.0,0.0,0.0,0.0,0.0,0.0,0.0,0.0,0.0,0.0,0.0,0.0,0.0,0.0,0.0,0.0,0.0,0.0,0.0,0.0,0.0,0.0,0.0,0.0,0.0,0.0,0.0,0.0,0.0,0.0,0.0,0.0,0.0,0.0,0.0,0.0,0.0,0.0,0.0,0.0,0.0,0.0,0.0,0.0,0.0,0.0,0.0,0.0,0.0,0.0,0.0,0.0,0.0,0.0,0.0,0.0,0.0,0.0,0.0,0.0,0.0,0.0,0.0,0.0,0.0,0.0,0.0,0.0,0.0,0.0,0.0,0.0,0.0,0.0,0.0,0.0,0.0,0.0,0.0,0.0,0.0,0.0,0.0,0.0,0.0,0.0,0.0,0.0,0.0,0.0,0.0,0.0
