0.2753367175020565,0.2704929498693902,0.2655879404284398,0.26020308036980877,0.25495858251999975,0.24989073438660284,0.24500227252849816,0.24028067373626477,0.2353702448896326,0.2308026246306651,0.22647773227050788,0.22223655568969666,0.21793828239220966,0.21320487015676548,0.20858246914026124,0.20410327059943464,0.19977516865803202,0.1955958910481545,0.19127123750819316,0.18726859099220783,0.18349531828973945,0.17980197198895992,0.17605471622256044,0.17192698056827452,0.167887958406879,0.16396663419577423,0.16017391543632348,0.1565135413969664,0.15274676261433803,0.14927246638829314,0.14600624114593988,0.14281173963984725,0.13956653151087361,0.13599629523417286,0.13249639773941277,0.12909282085848622,0.12579808082230703,0.12261952162478085,0.11936734313980059,0.11637464748923604,0.11356534960950149,0.11081732377367784,0.10802120874418245,0.10495207760728699,0.10193820240353693,0.0990033862908867,0.09616157507314299,0.09342289586358403,0.0906404848820965,0.08808745115496537,0.08569553448060115,0.08335610886108422,0.08097213115525878,0.07836215862781094,0.07579391394670895,0.07328855218954863,0.07086045232007268,0.06852136644693353,0.06616089795139612,0.0639991524090663,0.06197562988433983,0.0,0.0,0.0,0.0,0.0,0.0,0.0,0.0,0.0,0.0,0.0,0.0,0.0,0.0,0.0,0.0,0.0,0.0,0.0,0.0,0.0,0.0,0.0,0.0,0.0,0.0,0.0,0.0,0.0,0.0,0.0,0.0,0.0,0.0,0.0,0.0,0.0,0.0,0.0,0.0,0.0,0.0,0.0,0.0,0.0,0.0,0.0,0.0,0.0,0.0,0.0,0.0,0.0,0.0,0.0,0.0,0.0,0.0,0.0,0.0,0.0,0.0,0.0,0.0,0.0,0.0,0.0,0.0,0.0,0.0,0.0,0.0,0.0,0.0,0.0,0.0,0.0,0.0,0.0,0.0,0.0,0.0,0.0,0.0,0.0,0.0,0.0,0.0,0.0,0.0,0.0,0.0,0.0,0.0,0.0,0.0,0.0,0.0,0.0,0.0,0.0,0.0,0.0,0.0,0.0,0.0,0.0,0.0,0.0,0.0,0.0,0.0,0.0,0.0,0.0,0.0,0.0,0.0,0.0,0.0,0.0,0.0,0.0,0.0,0.0,0.0,0.0,0.0,0.0,0.0,0.0,0.0,0.0,0.0,0.0,0.0,0.0,0.0,0.0,0.0,0.0,0.0,0.0,0.0,0.0,0.0,0.0,0.0,0.0,0.0,0.0,0.0,0.0,0.0,0.0,0.0,0.0,0.0,0.0,0.0,0.0,0.0,0.0,0.0,0.0,0.0,0.0,0.0,0.0,0.0,0.0,0.0,0.0,0.0,0.0,0.0,0.0,0.0,0.0,0.0,0.0,0.0,0.0,0.0,0.0,0.0,0.0,0.0,0.0,0.0,0.0,0.0,0.0,0.0,0.0,0.0,0.0,0.0,0.0,0.0,0.0,0.0,0.0,0.0,0.0,0.0,0.0,0.0,0.0,0.0,0.0,0.0,0.0,0.0,0.0,0.0,0.0,0.0,0.0,0.0,0.0,0.0,0.0,0.0,0.0,0.0,0.0,0.0,0.0,0.0,0.0,0.0,0.0,0.0,0.0,0.0,0.0,0.0,0.0,0.2733695158354617,0.26856413438042387,0.26369844703255013,0.25835599542720855,0.25315211419841677,0.24812241371707808,0.24326944402149778,0.23858085427869832,0.2337037356487489,0.22916644741675207,0.22486992046448787,0.22065647171165564,0.21638639075249197,0.21168433443562953,0.20709267503225523,0.20264326373258054,0.19834380209045438,0.19419192722628564,0.18989547266022963,0.18591863613967405,0.18216943797631682,0.17849949263946183,0.17477594047309447,0.17067454453404568,0.16666137620815508,0.16276522770733207,0.15899688125928055,0.1553599537199033,0.15161719274400806,0.1481646882337239,0.1449185161861626,0.14174323723713575,0.13851732663637709,0.134968501790337,0.13148966520378944,0.1281068674763807,0.12483274317685752,0.12167469955285086,0.11844424665656737,0.11547206995844132,0.11268243223697483,0.10995385071787399,0.10717754206554286,0.10413004451420062,0.10113724739810001,0.09822277100885567,0.09540046679656448,0.09268038457823488,0.08991671487018774,0.0873805368898844,0.08500402223551382,0.0826793093007448,0.08031011631287417,0.07771667574947526,0.07516481077126375,0.07267561924063544,0.07026341357876702,0.06793984804751346,0.06559567867467776,0.0634489965815695,0.06143941951003174,0.0,0.0,0.0,0.0,0.0,0.0,0.0,0.0,0.0,0.0,0.0,0.0,0.0,0.0,0.0,0.0,0.0,0.0,0.0,0.0,0.0,0.0,0.0,0.0,0.0,0.0,0.0,0.0,0.0,0.0,0.0,0.0,0.0,0.0,0.0,0.0,0.0,0.0,0.0,0.0,0.0,0.0,0.0,0.0,0.0,0.0,0.0,0.0,0.0,0.0,0.0,0.0,0.0,0.0,0.0,0.0,0.0,0.0,0.0,0.0,0.0,0.0,0.0,0.0,0.0,0.0,0.0,0.0,0.0,0.0,0.0,0.0,0.0,0.0,0.0,0.0,0.0,0.0,0.0,0.0,0.0,0.0,0.0,0.0,0.0,0.0,0.0,0.0,0.0,0.0,0.0,0.0,0.0,0.0,0.0,0.0,0.0,0.0,0.0,0.0,0.0,0.0,0.0,0.0,0.0,0.0,0.0,0.0,0.0,0.0,0.0,0.0,0.0,0.0,0.0,0.0,0.0,0.0,0.0,0.0,0.0,0.0,0.0,0.0,0.0,0.0,0.0,0.0,0.0,0.0,0.0,0.0,0.0,0.0,0.0,0.0,0.0,0.0,0.0,0.0,0.0,0.0,0.0,0.0,0.0,0.0,0.0,0.0,0.0,0.0,0.0,0.0,0.0,0.0,0.0,0.0,0.0,0.0,0.0,0.0,0.0,0.0,0.0,0.0,0.0,0.0,0.0,0.0,0.0,0.0,0.0,0.0,0.0,0.0,0.0,0.0,0.0,0.0,0.0,0.0,0.0,0.0,0.0,0.0,0.0,0.0,0.0,0.0,0.0,0.0,0.0,0.0,0.0,0.0,0.0,0.0,0.0,0.0,0.0,0.0,0.0,0.0,0.0,0.0,0.0,0.0,0.0,0.0,0.0,0.0,0.0,0.0,0.0,0.0,0.0,0.0,0.0,0.0,0.0,0.0,0.0,0.0,0.0,0.0,0.0,0.0,0.0,0.0,0.0,0.0,0.0,0.0,0.0,0.0,0.0,0.0,0.0,0.0,0.0
0.011344872154271397,0.011343794876219823,0.011347730897630854,0.011357223149634483,0.011371533764261985,0.01138900558740849,0.011390712571670743,0.01139483607342211,0.011402746842472465,0.011415430162614516,0.011433139020545584,0.011438366738559774,0.01144949356106941,0.011466977127324017,0.01148998512124482,0.011516640258125677,0.011527719132139411,0.01154077325870128,0.011556738904360023,0.011576396871995033,0.01160014149570577,0.011611020896614926,0.011628060405589783,0.01165251506799424,0.011684102049043327,0.011720974969148616,0.011743173174842185,0.011767149488008019,0.011792186271715223,0.011817375848403694,0.01184180844259146,0.01184769056725172,0.011854772628900587,0.011865400549417893,0.0118809016274131,0.011901196760379566,0.01190781209403508,0.011918088527786617,0.011931448123837765,0.011946331478134694,0.011960585078167671,0.011955152611949394,0.011948065861540708,0.011941121177283135,0.011935963195455724,0.011933619024129654,0.011917301758812436,0.01190602616116591,0.011900931945298695,0.011901692767834607,0.011906652970091637,0.011896322378361503,0.011887872924360285,0.011881711550427075,0.011878037977067102,0.011876729006787117,0.011860259031971092,0.011847842918131693,0.011841255376008893,0.0118411339757412,0.011846805043482594,0.0,0.0,0.0,0.0,0.0,0.0,0.0,0.0,0.0,0.0,0.0,0.0,0.0,0.0,0.0,0.0,0.0,0.0,0.0,0.0,0.0,0.0,0.0,0.0,0.0,0.0,0.0,0.0,0.0,0.0,0.0,0.0,0.0,0.0,0.0,0.0,0.0,0.0,0.0,0.0,0.0,0.0,0.0,0.0,0.0,0.0,0.0,0.0,0.0,0.0,0.0,0.0,0.0,0.0,0.0,0.0,0.0,0.0,0.0,0.0,0.0,0.0,0.0,0.0,0.0,0.0,0.0,0.0,0.0,0.0,0.0,0.0,0.0,0.0,0.0,0.0,0.0,0.0,0.0,0.0,0.0,0.0,0.0,0.0,0.0,0.0,0.0,0.0,0.0,0.0,0.0,0.0,0.0,0.0,0.0,0.0,0.0,0.0,0.0,0.0,0.0,0.0,0.0,0.0,0.0,0.0,0.0,0.0,0.0,0.0,0.0,0.0,0.0,0.0,0.0,0.0,0.0,0.0,0.0,0.0,0.0,0.0,0.0,0.0,0.0,0.0,0.0,0.0,0.0,0.0,0.0,0.0,0.0,0.0,0.0,0.0,0.0,0.0,0.0,0.0,0.0,0.0,0.0,0.0,0.0,0.0,0.0,0.0,0.0,0.0,0.0,0.0,0.0,0.0,0.0,0.0,0.0,0.0,0.0,0.0,0.0,0.0,0.0,0.0,0.0,0.0,0.0,0.0,0.0,0.0,0.0,0.0,0.0,0.0,0.0,0.0,0.0,0.0,0.0,0.0,0.0,0.0,0.0,0.0,0.0,0.0,0.0,0.0,0.0,0.0,0.0,0.0,0.0,0.0,0.0,0.0,0.0,0.0,0.0,0.0,0.0,0.0,0.0,0.0,0.0,0.0,0.0,0.0,0.0,0.0,0.0,0.0,0.0,0.0,0.0,0.0,0.0,0.0,0.0,0.0,0.0,0.0,0.0,0.0,0.0,0.0,0.0,0.0,0.0,0.0,0.0,0.0,0.0,0.0,0.0,0.0,0.0,0.0,0.0,0.011246286794666494,0.011246581471988908,0.01125121348483696,0.01126039373769812,0.011273519061418791,0.011289378702728788,0.011289733714373397,0.011293008759656628,0.011300770171809048,0.011313934953904118,0.01133247061079108,0.011338669913225284,0.011350317121413775,0.01136762448639894,0.0113897350603354,0.011414968880798553,0.011424673508435713,0.011436582953917947,0.011452033908308868,0.011472130860634481,0.011497467150806026,0.011511370022151149,0.011532496495560096,0.01156187441605826,0.011598920043662102,0.011641446631958059,0.011669517075233244,0.011698775024867217,0.011728372716959319,0.011757477282559983,0.01178542611311009,0.011795275696097037,0.011806369872101395,0.011821429050595637,0.011842046683726015,0.011868150658732299,0.011881286358652394,0.011897737843261308,0.0119162609639702,0.011934770698211857,0.011950875204354509,0.011945810197293055,0.01193788053360056,0.011929486309602997,0.011922897425653533,0.011919602731537726,0.011903145558502932,0.0118921065617577,0.011886979172495636,0.011886566774967803,0.01188833025872094,0.011872299738608224,0.011855152400656587,0.011837451894772692,0.011820034467518163,0.011803790057610647,0.011772604995651725,0.011746654561097447,0.011728617334042917,0.01171966725519986,0.011719249856500353,0.0,0.0,0.0,0.0,0.0,0.0,0.0,0.0,0.0,0.0,0.0,0.0,0.0,0.0,0.0,0.0,0.0,0.0,0.0,0.0,0.0,0.0,0.0,0.0,0.0,0.0,0.0,0.0,0.0,0.0,0.0,0.0,0.0,0.0,0.0,0.0,0.0,0.0,0.0,0.0,0.0,0.0,0.0,0.0,0.0,0.0,0.0,0.0,0.0,0.0,0.0,0.0,0.0,0.0,0.0,0.0,0.0,0.0,0.0,0.0,0.0,0.0,0.0,0.0,0.0,0.0,0.0,0.0,0.0,0.0,0.0,0.0,0.0,0.0,0.0,0.0,0.0,0.0,0.0,0.0,0.0,0.0,0.0,0.0,0.0,0.0,0.0,0.0,0.0,0.0,0.0,0.0,0.0,0.0,0.0,0.0,0.0,0.0,0.0,0.0,0.0,0.0,0.0,0.0,0.0,0.0,0.0,0.0,0.0,0.0,0.0,0.0,0.0,0.0,0.0,0.0,0.0,0.0,0.0,0.0,0.0,0.0,0.0,0.0,0.0,0.0,0.0,0.0,0.0,0.0,0.0,0.0,0.0,0.0,0.0,0.0,0.0,0.0,0.0,0.0,0.0,0.0,0.0,0.0,0.0,0.0,0.0,0.0,0.0,0.0,0.0,0.0,0.0,0.0,0.0,0.0,0.0,0.0,0.0,0.0,0.0,0.0,0.0,0.0,0.0,0.0,0.0,0.0,0.0,0.0,0.0,0.0,0.0,0.0,0.0,0.0,0.0,0.0,0.0,0.0,0.0,0.0,0.0,0.0,0.0,0.0,0.0,0.0,0.0,0.0,0.0,0.0,0.0,0.0,0.0,0.0,0.0,0.0,0.0,0.0,0.0,0.0,0.0,0.0,0.0,0.0,0.0,0.0,0.0,0.0,0.0,0.0,0.0,0.0,0.0,0.0,0.0,0.0,0.0,0.0,0.0,0.0,0.0,0.0,0.0,0.0,0.0,0.0,0.0,0.0,0.0,0.0,0.0,0.0,0.0,0.0,0.0,0.0,0.0
0.01330341800894636,0.013290116568403065,0.013301265368653814,0.01331402056085829,0.013346203995105757,0.013394297169171397,0.013453367078282675,0.0135178113188931,0.013561790451466188,0.01360437026871059,0.01364642964971554,0.013689385159430188,0.013734357269132389,0.013761052117107068,0.013792225222686893,0.013829853205983629,0.01387425925001278,0.013924053089998691,0.01395593763085576,0.013990364758025464,0.014028010945025355,0.014069222631224548,0.014113748910864993,0.014139962785111438,0.014170145375869504,0.014206081506528846,0.014248301092390916,0.014295810479450593,0.01432551676285655,0.014358270526408904,0.014394652455769782,0.0144347144493515,0.01447787204803619,0.014502118103996686,0.0145299708588175,0.014563422175484928,0.014603290199080002,0.014648808405179495,0.014676658109115942,0.014707858618728475,0.014742542130986306,0.014780192751643573,0.014819744762322798,0.014838621752182606,0.014860022358203594,0.014886373524206768,0.014919053744247185,0.014957805418175997,0.014979425839453987,0.015004953774555125,0.015033962165436395,0.01506499559309586,0.015095866074029195,0.015103038375736273,0.015108857999928418,0.015115823303270309,0.015126104121756818,0.015140807945684683,0.015138297705073864,0.015141386497332035,0.015151002529692379,0.0,0.0,0.0,0.0,0.0,0.0,0.0,0.0,0.0,0.0,0.0,0.0,0.0,0.0,0.0,0.0,0.0,0.0,0.0,0.0,0.0,0.0,0.0,0.0,0.0,0.0,0.0,0.0,0.0,0.0,0.0,0.0,0.0,0.0,0.0,0.0,0.0,0.0,0.0,0.0,0.0,0.0,0.0,0.0,0.0,0.0,0.0,0.0,0.0,0.0,0.0,0.0,0.0,0.0,0.0,0.0,0.0,0.0,0.0,0.0,0.0,0.0,0.0,0.0,0.0,0.0,0.0,0.0,0.0,0.0,0.0,0.0,0.0,0.0,0.0,0.0,0.0,0.0,0.0,0.0,0.0,0.0,0.0,0.0,0.0,0.0,0.0,0.0,0.0,0.0,0.0,0.0,0.0,0.0,0.0,0.0,0.0,0.0,0.0,0.0,0.0,0.0,0.0,0.0,0.0,0.0,0.0,0.0,0.0,0.0,0.0,0.0,0.0,0.0,0.0,0.0,0.0,0.0,0.0,0.0,0.0,0.0,0.0,0.0,0.0,0.0,0.0,0.0,0.0,0.0,0.0,0.0,0.0,0.0,0.0,0.0,0.0,0.0,0.0,0.0,0.0,0.0,0.0,0.0,0.0,0.0,0.0,0.0,0.0,0.0,0.0,0.0,0.0,0.0,0.0,0.0,0.0,0.0,0.0,0.0,0.0,0.0,0.0,0.0,0.0,0.0,0.0,0.0,0.0,0.0,0.0,0.0,0.0,0.0,0.0,0.0,0.0,0.0,0.0,0.0,0.0,0.0,0.0,0.0,0.0,0.0,0.0,0.0,0.0,0.0,0.0,0.0,0.0,0.0,0.0,0.0,0.0,0.0,0.0,0.0,0.0,0.0,0.0,0.0,0.0,0.0,0.0,0.0,0.0,0.0,0.0,0.0,0.0,0.0,0.0,0.0,0.0,0.0,0.0,0.0,0.0,0.0,0.0,0.0,0.0,0.0,0.0,0.0,0.0,0.0,0.0,0.0,0.0,0.0,0.0,0.0,0.0,0.0,0.0,0.01348725824420727,0.013531455418514023,0.013573575807840414,0.01359224468197855,0.013609262326013099,0.013627302862851673,0.013648377519781303,0.013673340203884365,0.013681499978704189,0.013694592467336805,0.013714226402403896,0.013740755388208762,0.013773104599928318,0.013788614018349035,0.013807660685094654,0.013830909238641777,0.013858454173474146,0.013889648712694883,0.013902781097469665,0.013919596191458574,0.013941983035280102,0.01397093641789184,0.014006192825461448,0.014025800715385693,0.01405084518791662,0.014082050383369824,0.014119106039275672,0.014160606949813009,0.014183852122381112,0.014209899356393616,0.014240036346097829,0.0142750691818559,0.014315021074164566,0.014338541850236787,0.014367727069811344,0.014404082410304725,0.014447709352086353,0.014497079487518225,0.014528692162521532,0.014562716544831726,0.014599275518082003,0.014638223902718642,0.014679137900871884,0.014700700306801269,0.014726041990867456,0.014757885487370517,0.014797541783270729,0.014844284783600276,0.014874450969410582,0.014907788966579976,0.014942881223208788,0.014977570400902867,0.01500943166632867,0.015015351641840636,0.01501838725497656,0.01502177529656704,0.015028365699273797,0.01503975068443123,0.015034700316716701,0.015035770618310547,0.01504326396194615,0.0,0.0,0.0,0.0,0.0,0.0,0.0,0.0,0.0,0.0,0.0,0.0,0.0,0.0,0.0,0.0,0.0,0.0,0.0,0.0,0.0,0.0,0.0,0.0,0.0,0.0,0.0,0.0,0.0,0.0,0.0,0.0,0.0,0.0,0.0,0.0,0.0,0.0,0.0,0.0,0.0,0.0,0.0,0.0,0.0,0.0,0.0,0.0,0.0,0.0,0.0,0.0,0.0,0.0,0.0,0.0,0.0,0.0,0.0,0.0,0.0,0.0,0.0,0.0,0.0,0.0,0.0,0.0,0.0,0.0,0.0,0.0,0.0,0.0,0.0,0.0,0.0,0.0,0.0,0.0,0.0,0.0,0.0,0.0,0.0,0.0,0.0,0.0,0.0,0.0,0.0,0.0,0.0,0.0,0.0,0.0,0.0,0.0,0.0,0.0,0.0,0.0,0.0,0.0,0.0,0.0,0.0,0.0,0.0,0.0,0.0,0.0,0.0,0.0,0.0,0.0,0.0,0.0,0.0,0.0,0.0,0.0,0.0,0.0,0.0,0.0,0.0,0.0,0.0,0.0,0.0,0.0,0.0,0.0,0.0,0.0,0.0,0.0,0.0,0.0,0.0,0.0,0.0,0.0,0.0,0.0,0.0,0.0,0.0,0.0,0.0,0.0,0.0,0.0,0.0,0.0,0.0,0.0,0.0,0.0,0.0,0.0,0.0,0.0,0.0,0.0,0.0,0.0,0.0,0.0,0.0,0.0,0.0,0.0,0.0,0.0,0.0,0.0,0.0,0.0,0.0,0.0,0.0,0.0,0.0,0.0,0.0,0.0,0.0,0.0,0.0,0.0,0.0,0.0,0.0,0.0,0.0,0.0,0.0,0.0,0.0,0.0,0.0,0.0,0.0,0.0,0.0,0.0,0.0,0.0,0.0,0.0,0.0,0.0,0.0,0.0,0.0,0.0,0.0,0.0,0.0,0.0,0.0,0.0,0.0,0.0,0.0,0.0,0.0,0.0,0.0,0.0,0.0,0.0,0.0,0.0,0.0,0.0,0.0
0.01506499559309586,0.015095866074029195,0.015103038375736273,0.015108857999928418,0.015115823303270309,0.015126104121756818,0.015140807945684683,0.015138297705073864,0.015141386497332035,0.015151002529692379,0.015166482739612186,0.015185749817340168,0.015184445881653727,0.015184336898186324,0.015186619084236084,0.015192221265034573,0.015201411654235138,0.015192088973840978,0.0151879071383773,0.015190668782824738,0.015200765015397088,0.015217073491130106,0.015215628543788988,0.015218641545803957,0.015226772476937097,0.015239940499567157,0.015257211719898663,0.015255208303514215,0.015257210661033227,0.015264727131003214,0.015278304760457807,0.015297349948667216,0.015298449423837847,0.015304840621642406,0.015317571270561582,0.015336544566757536,0.01536043898190267,0.015365078767526028,0.01537332275658757,0.015385950341459967,0.01540296044675714,0.01542352801513813,0.015424227894834686,0.015429018960350992,0.01543947051861841,0.015455977067989818,0.015477583965103884,0.015480199755074711,0.015486886068656057,0.015498119916661578,0.015513455496550593,0.015531639915069638,0.015528926046668622,0.015529409121052032,0.015534753551400956,0.015545588056840394,0.015561285272033508,0.01555810718254337,0.015559475806931865,0.01556592980973674,0.015576907163331028,0.0,0.0,0.0,0.0,0.0,0.0,0.0,0.0,0.0,0.0,0.0,0.0,0.0,0.0,0.0,0.0,0.0,0.0,0.0,0.0,0.0,0.0,0.0,0.0,0.0,0.0,0.0,0.0,0.0,0.0,0.0,0.0,0.0,0.0,0.0,0.0,0.0,0.0,0.0,0.0,0.0,0.0,0.0,0.0,0.0,0.0,0.0,0.0,0.0,0.0,0.0,0.0,0.0,0.0,0.0,0.0,0.0,0.0,0.0,0.0,0.0,0.0,0.0,0.0,0.0,0.0,0.0,0.0,0.0,0.0,0.0,0.0,0.0,0.0,0.0,0.0,0.0,0.0,0.0,0.0,0.0,0.0,0.0,0.0,0.0,0.0,0.0,0.0,0.0,0.0,0.0,0.0,0.0,0.0,0.0,0.0,0.0,0.0,0.0,0.0,0.0,0.0,0.0,0.0,0.0,0.0,0.0,0.0,0.0,0.0,0.0,0.0,0.0,0.0,0.0,0.0,0.0,0.0,0.0,0.0,0.0,0.0,0.0,0.0,0.0,0.0,0.0,0.0,0.0,0.0,0.0,0.0,0.0,0.0,0.0,0.0,0.0,0.0,0.0,0.0,0.0,0.0,0.0,0.0,0.0,0.0,0.0,0.0,0.0,0.0,0.0,0.0,0.0,0.0,0.0,0.0,0.0,0.0,0.0,0.0,0.0,0.0,0.0,0.0,0.0,0.0,0.0,0.0,0.0,0.0,0.0,0.0,0.0,0.0,0.0,0.0,0.0,0.0,0.0,0.0,0.0,0.0,0.0,0.0,0.0,0.0,0.0,0.0,0.0,0.0,0.0,0.0,0.0,0.0,0.0,0.0,0.0,0.0,0.0,0.0,0.0,0.0,0.0,0.0,0.0,0.0,0.0,0.0,0.0,0.0,0.0,0.0,0.0,0.0,0.0,0.0,0.0,0.0,0.0,0.0,0.0,0.0,0.0,0.0,0.0,0.0,0.0,0.0,0.0,0.0,0.0,0.0,0.0,0.0,0.0,0.0,0.0,0.0,0.0,0.014977570400902867,0.01500943166632867,0.015015351641840636,0.01501838725497656,0.01502177529656704,0.015028365699273797,0.01503975068443123,0.015034700316716701,0.015035770618310547,0.01504326396194615,0.015055666981993768,0.015070069702533788,0.015061820018524593,0.015052279444813473,0.015042779325627023,0.015034782683198779,0.015029409885987619,0.01500590514624443,0.014988587838331287,0.014979854371396715,0.014980323793500464,0.014988750069441448,0.014981158662473177,0.014978861577617733,0.014981875049247816,0.01498961340395576,0.015000901941951332,0.014992827866691464,0.014988610284631403,0.014990138408048853,0.014998369903101967,0.015013053814461219,0.015011384300779976,0.015016179914340141,0.015028197228987057,0.015046925452226363,0.015070619804946785,0.015075177257524898,0.015082870851062372,0.015094364545210263,0.01510969234537179,0.01512818579543235,0.015127034678090024,0.015130015500796545,0.015138742705281294,0.015153580890361874,0.015173509008035914,0.015174723418711114,0.015179911807676114,0.015189458727148232,0.01520285725886257,0.015218832220639477,0.015213949421348074,0.015212041948511156,0.015214727580030203,0.015222612993780622,0.015235112826926547,0.015228903986504066,0.015227308198154467,0.015230994661446562,0.015239501452913955,0.0,0.0,0.0,0.0,0.0,0.0,0.0,0.0,0.0,0.0,0.0,0.0,0.0,0.0,0.0,0.0,0.0,0.0,0.0,0.0,0.0,0.0,0.0,0.0,0.0,0.0,0.0,0.0,0.0,0.0,0.0,0.0,0.0,0.0,0.0,0.0,0.0,0.0,0.0,0.0,0.0,0.0,0.0,0.0,0.0,0.0,0.0,0.0,0.0,0.0,0.0,0.0,0.0,0.0,0.0,0.0,0.0,0.0,0.0,0.0,0.0,0.0,0.0,0.0,0.0,0.0,0.0,0.0,0.0,0.0,0.0,0.0,0.0,0.0,0.0,0.0,0.0,0.0,0.0,0.0,0.0,0.0,0.0,0.0,0.0,0.0,0.0,0.0,0.0,0.0,0.0,0.0,0.0,0.0,0.0,0.0,0.0,0.0,0.0,0.0,0.0,0.0,0.0,0.0,0.0,0.0,0.0,0.0,0.0,0.0,0.0,0.0,0.0,0.0,0.0,0.0,0.0,0.0,0.0,0.0,0.0,0.0,0.0,0.0,0.0,0.0,0.0,0.0,0.0,0.0,0.0,0.0,0.0,0.0,0.0,0.0,0.0,0.0,0.0,0.0,0.0,0.0,0.0,0.0,0.0,0.0,0.0,0.0,0.0,0.0,0.0,0.0,0.0,0.0,0.0,0.0,0.0,0.0,0.0,0.0,0.0,0.0,0.0,0.0,0.0,0.0,0.0,0.0,0.0,0.0,0.0,0.0,0.0,0.0,0.0,0.0,0.0,0.0,0.0,0.0,0.0,0.0,0.0,0.0,0.0,0.0,0.0,0.0,0.0,0.0,0.0,0.0,0.0,0.0,0.0,0.0,0.0,0.0,0.0,0.0,0.0,0.0,0.0,0.0,0.0,0.0,0.0,0.0,0.0,0.0,0.0,0.0,0.0,0.0,0.0,0.0,0.0,0.0,0.0,0.0,0.0,0.0,0.0,0.0,0.0,0.0,0.0,0.0,0.0,0.0,0.0,0.0,0.0,0.0,0.0,0.0,0.0,0.0,0.0
0.015531639915069638,0.015528926046668622,0.015529409121052032,0.015534753551400956,0.015545588056840394,0.015561285272033508,0.01555810718254337,0.015559475806931865,0.01556592980973674,0.015576907163331028,0.015590930628997378,0.015584076428344237,0.015580244909290632,0.01558095704166503,0.015586806510948854,0.015597250500117158,0.015588845752961282,0.015585168984679437,0.015586889900139431,0.015593511753923197,0.01560357037123694,0.015593287645175521,0.015586402184802589,0.015584297016052876,0.015587411591745233,0.015595072409747923,0.015583883287681313,0.01557733406481121,0.01557607031592511,0.015579614004975994,0.015586574448258905,0.015573377992527544,0.015563873381358794,0.015559490448955377,0.01556064234463571,0.01556656162842147,0.015554067503372683,0.015546163866899032,0.01554302824923688,0.015543718806481801,0.015546548808584037,0.015528584838488388,0.015513421360705236,0.015502572840129425,0.01549658379074062,0.015494896132167386,0.015474962533112533,0.015459962802092287,0.015450311085601217,0.015445252663892147,0.015443243455750738,0.01542142816785964,0.01540348963905568,0.01539083123029014,0.015383763857883277,0.015381399400213205,0.015360850476039396,0.01534490052332137,0.015333545643199005,0.015325683854031743,0.01531955534467567,0.0,0.0,0.0,0.0,0.0,0.0,0.0,0.0,0.0,0.0,0.0,0.0,0.0,0.0,0.0,0.0,0.0,0.0,0.0,0.0,0.0,0.0,0.0,0.0,0.0,0.0,0.0,0.0,0.0,0.0,0.0,0.0,0.0,0.0,0.0,0.0,0.0,0.0,0.0,0.0,0.0,0.0,0.0,0.0,0.0,0.0,0.0,0.0,0.0,0.0,0.0,0.0,0.0,0.0,0.0,0.0,0.0,0.0,0.0,0.0,0.0,0.0,0.0,0.0,0.0,0.0,0.0,0.0,0.0,0.0,0.0,0.0,0.0,0.0,0.0,0.0,0.0,0.0,0.0,0.0,0.0,0.0,0.0,0.0,0.0,0.0,0.0,0.0,0.0,0.0,0.0,0.0,0.0,0.0,0.0,0.0,0.0,0.0,0.0,0.0,0.0,0.0,0.0,0.0,0.0,0.0,0.0,0.0,0.0,0.0,0.0,0.0,0.0,0.0,0.0,0.0,0.0,0.0,0.0,0.0,0.0,0.0,0.0,0.0,0.0,0.0,0.0,0.0,0.0,0.0,0.0,0.0,0.0,0.0,0.0,0.0,0.0,0.0,0.0,0.0,0.0,0.0,0.0,0.0,0.0,0.0,0.0,0.0,0.0,0.0,0.0,0.0,0.0,0.0,0.0,0.0,0.0,0.0,0.0,0.0,0.0,0.0,0.0,0.0,0.0,0.0,0.0,0.0,0.0,0.0,0.0,0.0,0.0,0.0,0.0,0.0,0.0,0.0,0.0,0.0,0.0,0.0,0.0,0.0,0.0,0.0,0.0,0.0,0.0,0.0,0.0,0.0,0.0,0.0,0.0,0.0,0.0,0.0,0.0,0.0,0.0,0.0,0.0,0.0,0.0,0.0,0.0,0.0,0.0,0.0,0.0,0.0,0.0,0.0,0.0,0.0,0.0,0.0,0.0,0.0,0.0,0.0,0.0,0.0,0.0,0.0,0.0,0.0,0.0,0.0,0.0,0.0,0.0,0.0,0.0,0.0,0.0,0.0,0.0,0.015218832220639477,0.015213949421348074,0.015212041948511156,0.015214727580030203,0.015222612993780622,0.015235112826926547,0.015228903986504066,0.015227308198154467,0.015230994661446562,0.015239501452913955,0.015251393433213618,0.015242995127216526,0.015237821741438222,0.015237193765203513,0.015241529639554828,0.015250204742938494,0.015240178227007642,0.015234802841029838,0.015234886788016213,0.01524007738681164,0.01524901605266337,0.01523839530207175,0.01523143304810527,0.015229317681385685,0.01523230048774838,0.01523959739374167,0.015228328503439418,0.015221553703060503,0.015220000162774645,0.015223303023008181,0.015230178734819967,0.015217697392935955,0.015209070159338294,0.015205512643527843,0.015207213621961004,0.01521326535338024,0.015200635491135721,0.015192369397289886,0.015189207881807647,0.015190899984909226,0.015196351971940511,0.015182571042812175,0.015173238331359093,0.01516972662996153,0.015172233008653228,0.015179672089564458,0.015168728143011121,0.015161912433835483,0.01515932184711172,0.015160143234679643,0.015162992207188405,0.015145420495447977,0.01513126384310075,0.015122409693845089,0.01511961173290412,0.015122237598441115,0.015107556959320853,0.015097553457257253,0.015091424326718372,0.015087025914314739,0.015081482989693825,0.0,0.0,0.0,0.0,0.0,0.0,0.0,0.0,0.0,0.0,0.0,0.0,0.0,0.0,0.0,0.0,0.0,0.0,0.0,0.0,0.0,0.0,0.0,0.0,0.0,0.0,0.0,0.0,0.0,0.0,0.0,0.0,0.0,0.0,0.0,0.0,0.0,0.0,0.0,0.0,0.0,0.0,0.0,0.0,0.0,0.0,0.0,0.0,0.0,0.0,0.0,0.0,0.0,0.0,0.0,0.0,0.0,0.0,0.0,0.0,0.0,0.0,0.0,0.0,0.0,0.0,0.0,0.0,0.0,0.0,0.0,0.0,0.0,0.0,0.0,0.0,0.0,0.0,0.0,0.0,0.0,0.0,0.0,0.0,0.0,0.0,0.0,0.0,0.0,0.0,0.0,0.0,0.0,0.0,0.0,0.0,0.0,0.0,0.0,0.0,0.0,0.0,0.0,0.0,0.0,0.0,0.0,0.0,0.0,0.0,0.0,0.0,0.0,0.0,0.0,0.0,0.0,0.0,0.0,0.0,0.0,0.0,0.0,0.0,0.0,0.0,0.0,0.0,0.0,0.0,0.0,0.0,0.0,0.0,0.0,0.0,0.0,0.0,0.0,0.0,0.0,0.0,0.0,0.0,0.0,0.0,0.0,0.0,0.0,0.0,0.0,0.0,0.0,0.0,0.0,0.0,0.0,0.0,0.0,0.0,0.0,0.0,0.0,0.0,0.0,0.0,0.0,0.0,0.0,0.0,0.0,0.0,0.0,0.0,0.0,0.0,0.0,0.0,0.0,0.0,0.0,0.0,0.0,0.0,0.0,0.0,0.0,0.0,0.0,0.0,0.0,0.0,0.0,0.0,0.0,0.0,0.0,0.0,0.0,0.0,0.0,0.0,0.0,0.0,0.0,0.0,0.0,0.0,0.0,0.0,0.0,0.0,0.0,0.0,0.0,0.0,0.0,0.0,0.0,0.0,0.0,0.0,0.0,0.0,0.0,0.0,0.0,0.0,0.0,0.0,0.0,0.0,0.0,0.0,0.0,0.0,0.0,0.0,0.0
0.01542142816785964,0.01540348963905568,0.01539083123029014,0.015383763857883277,0.015381399400213205,0.015360850476039396,0.01534490052332137,0.015333545643199005,0.015325683854031743,0.01531955534467567,0.015292359058118635,0.0152678166639087,0.015247480611653427,0.015231883158980185,0.01522042987724049,0.015190768650366294,0.015166017873996795,0.015146637094518,0.015132087889855006,0.01512130440980531,0.015092503882173603,0.015070019866537334,0.015055889797221519,0.01505066203805146,0.015053047113043937,0.015039316286134443,0.015029697896517915,0.015020862363587746,0.015007778686391252,0.014984789816282562,0.014926499762893604,0.014854684858678632,0.014771309547711295,0.014679725865380876,0.014584466002085732,0.014470582925218533,0.014368127266996369,0.01428407704495238,0.014222484029030355,0.014184142187888901,0.014146809055503914,0.014130429208993205,0.014131252379828242,0.014143637782742474,0.014161230204673057,0.014158467611886865,0.014155077526485227,0.01415057689181314,0.014144902600051338,0.014138318221457214,0.014111919340181557,0.014090003270921131,0.014074645926955297,0.014065932755952604,0.014062226275642367,0.014041839459664085,0.014025211073000816,0.014011419875960041,0.013998912834653092,0.01398613432982752,0.013953465239789334,0.0,0.0,0.0,0.0,0.0,0.0,0.0,0.0,0.0,0.0,0.0,0.0,0.0,0.0,0.0,0.0,0.0,0.0,0.0,0.0,0.0,0.0,0.0,0.0,0.0,0.0,0.0,0.0,0.0,0.0,0.0,0.0,0.0,0.0,0.0,0.0,0.0,0.0,0.0,0.0,0.0,0.0,0.0,0.0,0.0,0.0,0.0,0.0,0.0,0.0,0.0,0.0,0.0,0.0,0.0,0.0,0.0,0.0,0.0,0.0,0.0,0.0,0.0,0.0,0.0,0.0,0.0,0.0,0.0,0.0,0.0,0.0,0.0,0.0,0.0,0.0,0.0,0.0,0.0,0.0,0.0,0.0,0.0,0.0,0.0,0.0,0.0,0.0,0.0,0.0,0.0,0.0,0.0,0.0,0.0,0.0,0.0,0.0,0.0,0.0,0.0,0.0,0.0,0.0,0.0,0.0,0.0,0.0,0.0,0.0,0.0,0.0,0.0,0.0,0.0,0.0,0.0,0.0,0.0,0.0,0.0,0.0,0.0,0.0,0.0,0.0,0.0,0.0,0.0,0.0,0.0,0.0,0.0,0.0,0.0,0.0,0.0,0.0,0.0,0.0,0.0,0.0,0.0,0.0,0.0,0.0,0.0,0.0,0.0,0.0,0.0,0.0,0.0,0.0,0.0,0.0,0.0,0.0,0.0,0.0,0.0,0.0,0.0,0.0,0.0,0.0,0.0,0.0,0.0,0.0,0.0,0.0,0.0,0.0,0.0,0.0,0.0,0.0,0.0,0.0,0.0,0.0,0.0,0.0,0.0,0.0,0.0,0.0,0.0,0.0,0.0,0.0,0.0,0.0,0.0,0.0,0.0,0.0,0.0,0.0,0.0,0.0,0.0,0.0,0.0,0.0,0.0,0.0,0.0,0.0,0.0,0.0,0.0,0.0,0.0,0.0,0.0,0.0,0.0,0.0,0.0,0.0,0.0,0.0,0.0,0.0,0.0,0.0,0.0,0.0,0.0,0.0,0.0,0.0,0.0,0.0,0.0,0.0,0.0,0.015145420495447977,0.01513126384310075,0.015122409693845089,0.01511961173290412,0.015122237598441115,0.015107556959320853,0.015097553457257253,0.015091424326718372,0.015087025914314739,0.015081482989693825,0.015051388572986366,0.015019503995126525,0.014987530528078734,0.014956937654877937,0.014928741081890585,0.014882942931178256,0.014844033437993811,0.014813713417609165,0.014791702652288427,0.014775999174087347,0.014743217303478997,0.014714456623512404,0.014689076571038061,0.014665908569035463,0.014643721612925398,0.01460160523414237,0.014564099832436386,0.014534733083430094,0.014516473332707077,0.01451144405176345,0.014500687404079922,0.014508258779650444,0.014534682966682953,0.014577350542962525,0.014630767237211318,0.014667532442463571,0.014703360416160608,0.014732512311853985,0.014749478814545837,0.014750090422659182,0.014712726769198383,0.01466200562846557,0.014603038949372564,0.014541024265746919,0.014480407655311398,0.014404926945138606,0.014339732600324765,0.014286628006763096,0.014244615948910539,0.014210724887963615,0.014162089289983967,0.014118536538164545,0.01407925635411296,0.01404318311547346,0.014009240969429685,0.013957904057832957,0.013911548114891792,0.013871367291026006,0.013837176795173428,0.013807757050895753,0.013763196928955891,0.0,0.0,0.0,0.0,0.0,0.0,0.0,0.0,0.0,0.0,0.0,0.0,0.0,0.0,0.0,0.0,0.0,0.0,0.0,0.0,0.0,0.0,0.0,0.0,0.0,0.0,0.0,0.0,0.0,0.0,0.0,0.0,0.0,0.0,0.0,0.0,0.0,0.0,0.0,0.0,0.0,0.0,0.0,0.0,0.0,0.0,0.0,0.0,0.0,0.0,0.0,0.0,0.0,0.0,0.0,0.0,0.0,0.0,0.0,0.0,0.0,0.0,0.0,0.0,0.0,0.0,0.0,0.0,0.0,0.0,0.0,0.0,0.0,0.0,0.0,0.0,0.0,0.0,0.0,0.0,0.0,0.0,0.0,0.0,0.0,0.0,0.0,0.0,0.0,0.0,0.0,0.0,0.0,0.0,0.0,0.0,0.0,0.0,0.0,0.0,0.0,0.0,0.0,0.0,0.0,0.0,0.0,0.0,0.0,0.0,0.0,0.0,0.0,0.0,0.0,0.0,0.0,0.0,0.0,0.0,0.0,0.0,0.0,0.0,0.0,0.0,0.0,0.0,0.0,0.0,0.0,0.0,0.0,0.0,0.0,0.0,0.0,0.0,0.0,0.0,0.0,0.0,0.0,0.0,0.0,0.0,0.0,0.0,0.0,0.0,0.0,0.0,0.0,0.0,0.0,0.0,0.0,0.0,0.0,0.0,0.0,0.0,0.0,0.0,0.0,0.0,0.0,0.0,0.0,0.0,0.0,0.0,0.0,0.0,0.0,0.0,0.0,0.0,0.0,0.0,0.0,0.0,0.0,0.0,0.0,0.0,0.0,0.0,0.0,0.0,0.0,0.0,0.0,0.0,0.0,0.0,0.0,0.0,0.0,0.0,0.0,0.0,0.0,0.0,0.0,0.0,0.0,0.0,0.0,0.0,0.0,0.0,0.0,0.0,0.0,0.0,0.0,0.0,0.0,0.0,0.0,0.0,0.0,0.0,0.0,0.0,0.0,0.0,0.0,0.0,0.0,0.0,0.0,0.0,0.0,0.0,0.0,0.0,0.0
0.014090003270921131,0.014074645926955297,0.014065932755952604,0.014062226275642367,0.014041839459664085,0.014025211073000816,0.014011419875960041,0.013998912834653092,0.01398613432982752,0.013953465239789334,0.01392364466371299,0.013898414210733448,0.01387816662093937,0.013862016947002714,0.013830028648670493,0.013802680703209353,0.01377929969222661,0.013758280846749257,0.013737899564177907,0.013699290407061257,0.013664413284985645,0.013634874798574666,0.01361093842561437,0.013591538984792236,0.01355729610643153,0.013527432217064286,0.013500399049130805,0.013473739058046908,0.013445178405406561,0.013396662951114057,0.013349888365574337,0.01330709109620572,0.013269335055081495,0.013236316741201137,0.013190192011130347,0.013149091868848823,0.013110687305532318,0.013071330249862111,0.013027455076995714,0.012961212490581471,0.012892361121205141,0.012823156322486425,0.012755486415703957,0.012690546439859552,0.012613467278785062,0.012543151468039648,0.012478507129487833,0.012416524032809554,0.012353637802723388,0.012272380823330644,0.012190780588005393,0.012109647501330456,0.012029565312014955,0.011950954069619841,0.01185991357550427,0.011775167988604191,0.011696442170685255,0.011621697315996686,0.01154827033651629,0.011460364873736136,0.011375209166109486,0.0,0.0,0.0,0.0,0.0,0.0,0.0,0.0,0.0,0.0,0.0,0.0,0.0,0.0,0.0,0.0,0.0,0.0,0.0,0.0,0.0,0.0,0.0,0.0,0.0,0.0,0.0,0.0,0.0,0.0,0.0,0.0,0.0,0.0,0.0,0.0,0.0,0.0,0.0,0.0,0.0,0.0,0.0,0.0,0.0,0.0,0.0,0.0,0.0,0.0,0.0,0.0,0.0,0.0,0.0,0.0,0.0,0.0,0.0,0.0,0.0,0.0,0.0,0.0,0.0,0.0,0.0,0.0,0.0,0.0,0.0,0.0,0.0,0.0,0.0,0.0,0.0,0.0,0.0,0.0,0.0,0.0,0.0,0.0,0.0,0.0,0.0,0.0,0.0,0.0,0.0,0.0,0.0,0.0,0.0,0.0,0.0,0.0,0.0,0.0,0.0,0.0,0.0,0.0,0.0,0.0,0.0,0.0,0.0,0.0,0.0,0.0,0.0,0.0,0.0,0.0,0.0,0.0,0.0,0.0,0.0,0.0,0.0,0.0,0.0,0.0,0.0,0.0,0.0,0.0,0.0,0.0,0.0,0.0,0.0,0.0,0.0,0.0,0.0,0.0,0.0,0.0,0.0,0.0,0.0,0.0,0.0,0.0,0.0,0.0,0.0,0.0,0.0,0.0,0.0,0.0,0.0,0.0,0.0,0.0,0.0,0.0,0.0,0.0,0.0,0.0,0.0,0.0,0.0,0.0,0.0,0.0,0.0,0.0,0.0,0.0,0.0,0.0,0.0,0.0,0.0,0.0,0.0,0.0,0.0,0.0,0.0,0.0,0.0,0.0,0.0,0.0,0.0,0.0,0.0,0.0,0.0,0.0,0.0,0.0,0.0,0.0,0.0,0.0,0.0,0.0,0.0,0.0,0.0,0.0,0.0,0.0,0.0,0.0,0.0,0.0,0.0,0.0,0.0,0.0,0.0,0.0,0.0,0.0,0.0,0.0,0.0,0.0,0.0,0.0,0.0,0.0,0.0,0.0,0.0,0.0,0.0,0.0,0.0,0.014118536538164545,0.01407925635411296,0.01404318311547346,0.014009240969429685,0.013957904057832957,0.013911548114891792,0.013871367291026006,0.013837176795173428,0.013807757050895753,0.013763196928955891,0.013724430664253735,0.013691503182528658,0.013663338167417906,0.013638176275461536,0.013596377123933981,0.013558529894981677,0.013524969635984072,0.013495248324698764,0.013468595500027318,0.01342706916177021,0.013391976597450311,0.013364225585797954,0.013343076904072148,0.01332644260788804,0.013294637859781607,0.013265998876834826,0.013239176247830503,0.013212389549492148,0.01318428971574876,0.013138176355258066,0.013095685989214581,0.013059143603398791,0.013029243478033262,0.013004933115874258,0.012967610892241953,0.012934383337906042,0.012902194583730773,0.012867068945070533,0.012825576515999755,0.012760292973412293,0.012692097841444762,0.012623804236621827,0.012557599173812505,0.012494703827831573,0.012420058715883572,0.012352289564609297,0.01228960761477724,0.012228211423506248,0.012163831139663392,0.012078699945147663,0.011990646318843484,0.011900674639174012,0.011809914955258825,0.011719628675981128,0.011617148890291642,0.011521982391005792,0.011434577954304385,0.011353280160317385,0.01127542621229886,0.011185166798437557,0.01109882037388662,0.0,0.0,0.0,0.0,0.0,0.0,0.0,0.0,0.0,0.0,0.0,0.0,0.0,0.0,0.0,0.0,0.0,0.0,0.0,0.0,0.0,0.0,0.0,0.0,0.0,0.0,0.0,0.0,0.0,0.0,0.0,0.0,0.0,0.0,0.0,0.0,0.0,0.0,0.0,0.0,0.0,0.0,0.0,0.0,0.0,0.0,0.0,0.0,0.0,0.0,0.0,0.0,0.0,0.0,0.0,0.0,0.0,0.0,0.0,0.0,0.0,0.0,0.0,0.0,0.0,0.0,0.0,0.0,0.0,0.0,0.0,0.0,0.0,0.0,0.0,0.0,0.0,0.0,0.0,0.0,0.0,0.0,0.0,0.0,0.0,0.0,0.0,0.0,0.0,0.0,0.0,0.0,0.0,0.0,0.0,0.0,0.0,0.0,0.0,0.0,0.0,0.0,0.0,0.0,0.0,0.0,0.0,0.0,0.0,0.0,0.0,0.0,0.0,0.0,0.0,0.0,0.0,0.0,0.0,0.0,0.0,0.0,0.0,0.0,0.0,0.0,0.0,0.0,0.0,0.0,0.0,0.0,0.0,0.0,0.0,0.0,0.0,0.0,0.0,0.0,0.0,0.0,0.0,0.0,0.0,0.0,0.0,0.0,0.0,0.0,0.0,0.0,0.0,0.0,0.0,0.0,0.0,0.0,0.0,0.0,0.0,0.0,0.0,0.0,0.0,0.0,0.0,0.0,0.0,0.0,0.0,0.0,0.0,0.0,0.0,0.0,0.0,0.0,0.0,0.0,0.0,0.0,0.0,0.0,0.0,0.0,0.0,0.0,0.0,0.0,0.0,0.0,0.0,0.0,0.0,0.0,0.0,0.0,0.0,0.0,0.0,0.0,0.0,0.0,0.0,0.0,0.0,0.0,0.0,0.0,0.0,0.0,0.0,0.0,0.0,0.0,0.0,0.0,0.0,0.0,0.0,0.0,0.0,0.0,0.0,0.0,0.0,0.0,0.0,0.0,0.0,0.0,0.0,0.0,0.0,0.0,0.0,0.0,0.0
0.012109647501330456,0.012029565312014955,0.011950954069619841,0.01185991357550427,0.011775167988604191,0.011696442170685255,0.011621697315996686,0.01154827033651629,0.011460364873736136,0.011375209166109486,0.011292880915994542,0.011212832472552905,0.01113430399524074,0.011043625589926163,0.010958041969939325,0.010876955982258577,0.010798441180402012,0.010720337653965191,0.01062879908100316,0.010540664346719592,0.010456129546893438,0.01037444322972767,0.010294451841114827,0.010203319741260954,0.010116780677022612,0.010033653573587542,0.009951643703166311,0.00986856602826446,0.009772207285806684,0.009678746883982882,0.009588584276481259,0.009501088338296994,0.009415174032784187,0.009319436562397629,0.009228290722057966,0.009140089403678947,0.00905207510317832,0.008961782037303911,0.008858475125104784,0.008757180830626132,0.00865831094234186,0.008561340903095476,0.008465415967558256,0.008361055300403443,0.008261445669721361,0.008164807275052009,0.008068198566501986,0.0079690498978126,0.007858390326976066,0.007749708323989109,0.007643274478992426,0.007538474548978863,0.007434451665402801,0.00732358299818394,0.007217290829206194,0.007113387481031266,0.007008521089832355,0.006899853432993003,0.006780245270673713,0.006661443415481392,0.006543656598736711,0.0,0.0,0.0,0.0,0.0,0.0,0.0,0.0,0.0,0.0,0.0,0.0,0.0,0.0,0.0,0.0,0.0,0.0,0.0,0.0,0.0,0.0,0.0,0.0,0.0,0.0,0.0,0.0,0.0,0.0,0.0,0.0,0.0,0.0,0.0,0.0,0.0,0.0,0.0,0.0,0.0,0.0,0.0,0.0,0.0,0.0,0.0,0.0,0.0,0.0,0.0,0.0,0.0,0.0,0.0,0.0,0.0,0.0,0.0,0.0,0.0,0.0,0.0,0.0,0.0,0.0,0.0,0.0,0.0,0.0,0.0,0.0,0.0,0.0,0.0,0.0,0.0,0.0,0.0,0.0,0.0,0.0,0.0,0.0,0.0,0.0,0.0,0.0,0.0,0.0,0.0,0.0,0.0,0.0,0.0,0.0,0.0,0.0,0.0,0.0,0.0,0.0,0.0,0.0,0.0,0.0,0.0,0.0,0.0,0.0,0.0,0.0,0.0,0.0,0.0,0.0,0.0,0.0,0.0,0.0,0.0,0.0,0.0,0.0,0.0,0.0,0.0,0.0,0.0,0.0,0.0,0.0,0.0,0.0,0.0,0.0,0.0,0.0,0.0,0.0,0.0,0.0,0.0,0.0,0.0,0.0,0.0,0.0,0.0,0.0,0.0,0.0,0.0,0.0,0.0,0.0,0.0,0.0,0.0,0.0,0.0,0.0,0.0,0.0,0.0,0.0,0.0,0.0,0.0,0.0,0.0,0.0,0.0,0.0,0.0,0.0,0.0,0.0,0.0,0.0,0.0,0.0,0.0,0.0,0.0,0.0,0.0,0.0,0.0,0.0,0.0,0.0,0.0,0.0,0.0,0.0,0.0,0.0,0.0,0.0,0.0,0.0,0.0,0.0,0.0,0.0,0.0,0.0,0.0,0.0,0.0,0.0,0.0,0.0,0.0,0.0,0.0,0.0,0.0,0.0,0.0,0.0,0.0,0.0,0.0,0.0,0.0,0.0,0.0,0.0,0.0,0.0,0.0,0.0,0.0,0.0,0.0,0.0,0.0,0.011900674639174012,0.011809914955258825,0.011719628675981128,0.011617148890291642,0.011521982391005792,0.011434577954304385,0.011353280160317385,0.01127542621229886,0.011185166798437557,0.01109882037388662,0.011015757479976112,0.01093482759437585,0.010854915061408166,0.010762639055290494,0.01067513005784605,0.010592228961996257,0.010512545236184025,0.010434403910517472,0.010344623497106532,0.010259653240058451,0.010179424410949647,0.01010274012870521,0.010027929339101575,0.009942037696950875,0.009860067320230233,0.00978070927153426,0.009701793084714012,0.009621454767685677,0.009528231629079379,0.009438282517343787,0.009352225899888794,0.009269470851510012,0.009188772408628275,0.009098706589110528,0.00901288133153009,0.008929174002627185,0.00884446119510103,0.008756090049570875,0.008653632697365644,0.008551980702582288,0.008451845775669431,0.008353080891325535,0.008255209592102426,0.008149316094566353,0.00804848027094611,0.007950972622817938,0.007853811382853309,0.007754329134633977,0.0076436585257091206,0.0075349208684805605,0.0074283300493073814,0.007323287896459339,0.007219001538478051,0.007108137389927513,0.007001849391575978,0.006897907397933454,0.006792852592702232,0.006683673942322126,0.006563245457646787,0.006442808009032694,0.006322495543095632,0.0,0.0,0.0,0.0,0.0,0.0,0.0,0.0,0.0,0.0,0.0,0.0,0.0,0.0,0.0,0.0,0.0,0.0,0.0,0.0,0.0,0.0,0.0,0.0,0.0,0.0,0.0,0.0,0.0,0.0,0.0,0.0,0.0,0.0,0.0,0.0,0.0,0.0,0.0,0.0,0.0,0.0,0.0,0.0,0.0,0.0,0.0,0.0,0.0,0.0,0.0,0.0,0.0,0.0,0.0,0.0,0.0,0.0,0.0,0.0,0.0,0.0,0.0,0.0,0.0,0.0,0.0,0.0,0.0,0.0,0.0,0.0,0.0,0.0,0.0,0.0,0.0,0.0,0.0,0.0,0.0,0.0,0.0,0.0,0.0,0.0,0.0,0.0,0.0,0.0,0.0,0.0,0.0,0.0,0.0,0.0,0.0,0.0,0.0,0.0,0.0,0.0,0.0,0.0,0.0,0.0,0.0,0.0,0.0,0.0,0.0,0.0,0.0,0.0,0.0,0.0,0.0,0.0,0.0,0.0,0.0,0.0,0.0,0.0,0.0,0.0,0.0,0.0,0.0,0.0,0.0,0.0,0.0,0.0,0.0,0.0,0.0,0.0,0.0,0.0,0.0,0.0,0.0,0.0,0.0,0.0,0.0,0.0,0.0,0.0,0.0,0.0,0.0,0.0,0.0,0.0,0.0,0.0,0.0,0.0,0.0,0.0,0.0,0.0,0.0,0.0,0.0,0.0,0.0,0.0,0.0,0.0,0.0,0.0,0.0,0.0,0.0,0.0,0.0,0.0,0.0,0.0,0.0,0.0,0.0,0.0,0.0,0.0,0.0,0.0,0.0,0.0,0.0,0.0,0.0,0.0,0.0,0.0,0.0,0.0,0.0,0.0,0.0,0.0,0.0,0.0,0.0,0.0,0.0,0.0,0.0,0.0,0.0,0.0,0.0,0.0,0.0,0.0,0.0,0.0,0.0,0.0,0.0,0.0,0.0,0.0,0.0,0.0,0.0,0.0,0.0,0.0,0.0,0.0,0.0,0.0,0.0,0.0,0.0
0.007538474548978863,0.007434451665402801,0.00732358299818394,0.007217290829206194,0.007113387481031266,0.007008521089832355,0.006899853432993003,0.006780245270673713,0.006661443415481392,0.006543656598736711,0.006426380647012581,0.006309073475013956,0.0061865817857363605,0.00606883605519056,0.005953678263727582,0.005837753316240348,0.005718293517034911,0.00559045242335689,0.005464090446344333,0.005339126608283519,0.0052147319347300445,0.005090098674629503,0.00496204490402083,0.00483825340141183,0.004716015254344641,0.004591541811629846,0.004461903832224094,0.0043245877486244675,0.004187696719944654,0.004051200173727657,0.0039143995504576515,0.0037767345979382123,0.0036378006321772685,0.0035031925404481997,0.0033698568463380097,0.0032336637957895787,0.003091565363652331,0.002943962598555979,0.002796738098902412,0.0026496716853728394,0.002501868837159214,0.0023526661179885736,0.002204202068922728,0.0020597243296338634,0.0019158217942593426,0.0017681555234595424,0.0016137668723248159,0.0014557653559819283,0.001298305320423008,0.001141313259124159,0.0009839566446217278,0.0008255221935499181,0.0006703348788557434,0.0005187368275142634,0.0003661240553861377,0.00020693755502635783,3.727751477502042e-05,-0.00013767958971956304,-0.0003162222194838301,-0.0004983073780368523,-0.000684106349010146,0.0,0.0,0.0,0.0,0.0,0.0,0.0,0.0,0.0,0.0,0.0,0.0,0.0,0.0,0.0,0.0,0.0,0.0,0.0,0.0,0.0,0.0,0.0,0.0,0.0,0.0,0.0,0.0,0.0,0.0,0.0,0.0,0.0,0.0,0.0,0.0,0.0,0.0,0.0,0.0,0.0,0.0,0.0,0.0,0.0,0.0,0.0,0.0,0.0,0.0,0.0,0.0,0.0,0.0,0.0,0.0,0.0,0.0,0.0,0.0,0.0,0.0,0.0,0.0,0.0,0.0,0.0,0.0,0.0,0.0,0.0,0.0,0.0,0.0,0.0,0.0,0.0,0.0,0.0,0.0,0.0,0.0,0.0,0.0,0.0,0.0,0.0,0.0,0.0,0.0,0.0,0.0,0.0,0.0,0.0,0.0,0.0,0.0,0.0,0.0,0.0,0.0,0.0,0.0,0.0,0.0,0.0,0.0,0.0,0.0,0.0,0.0,0.0,0.0,0.0,0.0,0.0,0.0,0.0,0.0,0.0,0.0,0.0,0.0,0.0,0.0,0.0,0.0,0.0,0.0,0.0,0.0,0.0,0.0,0.0,0.0,0.0,0.0,0.0,0.0,0.0,0.0,0.0,0.0,0.0,0.0,0.0,0.0,0.0,0.0,0.0,0.0,0.0,0.0,0.0,0.0,0.0,0.0,0.0,0.0,0.0,0.0,0.0,0.0,0.0,0.0,0.0,0.0,0.0,0.0,0.0,0.0,0.0,0.0,0.0,0.0,0.0,0.0,0.0,0.0,0.0,0.0,0.0,0.0,0.0,0.0,0.0,0.0,0.0,0.0,0.0,0.0,0.0,0.0,0.0,0.0,0.0,0.0,0.0,0.0,0.0,0.0,0.0,0.0,0.0,0.0,0.0,0.0,0.0,0.0,0.0,0.0,0.0,0.0,0.0,0.0,0.0,0.0,0.0,0.0,0.0,0.0,0.0,0.0,0.0,0.0,0.0,0.0,0.0,0.0,0.0,0.0,0.0,0.0,0.0,0.0,0.0,0.0,0.0,0.007323287896459339,0.007219001538478051,0.007108137389927513,0.007001849391575978,0.006897907397933454,0.006792852592702232,0.006683673942322126,0.006563245457646787,0.006442808009032694,0.006322495543095632,0.006201904345823722,0.006080764052412222,0.005954571203671763,0.005833367943388566,0.005715437981500732,0.005597788804490991,0.005477854162502318,0.00535106290391896,0.005226707689963439,0.0051043791061963885,0.004982900430481808,0.004861165560411424,0.004736093803687225,0.004614900201425831,0.0044948788941140015,0.004372337974693442,0.0042444769583205285,0.004109209367960517,0.003974277864863608,0.0038395801468631666,0.0037043326384958576,0.0035679299100394492,0.003429411410157286,0.0032950646574120904,0.0031626520086775133,0.0030289201982626654,0.0028913828617583696,0.0027488456025373054,0.002607861078312238,0.0024680552803336025,0.0023283451284547884,0.002187806981167017,0.0020471467039895512,0.0019099889676623496,0.0017730282407980946,0.001632083398160227,0.001484231100575665,0.001331853510653419,0.0011791746474372753,0.001026190470951889,0.0008723628324972816,0.0007174296816091553,0.0005658680793220647,0.00041840771150879874,0.00027050880769662945,0.00011619656544998727,-4.9371737357354196e-05,-0.0002223497411736852,-0.00040237629338261765,-0.0005900705628838241,-0.0007853301032950731,0.0,0.0,0.0,0.0,0.0,0.0,0.0,0.0,0.0,0.0,0.0,0.0,0.0,0.0,0.0,0.0,0.0,0.0,0.0,0.0,0.0,0.0,0.0,0.0,0.0,0.0,0.0,0.0,0.0,0.0,0.0,0.0,0.0,0.0,0.0,0.0,0.0,0.0,0.0,0.0,0.0,0.0,0.0,0.0,0.0,0.0,0.0,0.0,0.0,0.0,0.0,0.0,0.0,0.0,0.0,0.0,0.0,0.0,0.0,0.0,0.0,0.0,0.0,0.0,0.0,0.0,0.0,0.0,0.0,0.0,0.0,0.0,0.0,0.0,0.0,0.0,0.0,0.0,0.0,0.0,0.0,0.0,0.0,0.0,0.0,0.0,0.0,0.0,0.0,0.0,0.0,0.0,0.0,0.0,0.0,0.0,0.0,0.0,0.0,0.0,0.0,0.0,0.0,0.0,0.0,0.0,0.0,0.0,0.0,0.0,0.0,0.0,0.0,0.0,0.0,0.0,0.0,0.0,0.0,0.0,0.0,0.0,0.0,0.0,0.0,0.0,0.0,0.0,0.0,0.0,0.0,0.0,0.0,0.0,0.0,0.0,0.0,0.0,0.0,0.0,0.0,0.0,0.0,0.0,0.0,0.0,0.0,0.0,0.0,0.0,0.0,0.0,0.0,0.0,0.0,0.0,0.0,0.0,0.0,0.0,0.0,0.0,0.0,0.0,0.0,0.0,0.0,0.0,0.0,0.0,0.0,0.0,0.0,0.0,0.0,0.0,0.0,0.0,0.0,0.0,0.0,0.0,0.0,0.0,0.0,0.0,0.0,0.0,0.0,0.0,0.0,0.0,0.0,0.0,0.0,0.0,0.0,0.0,0.0,0.0,0.0,0.0,0.0,0.0,0.0,0.0,0.0,0.0,0.0,0.0,0.0,0.0,0.0,0.0,0.0,0.0,0.0,0.0,0.0,0.0,0.0,0.0,0.0,0.0,0.0,0.0,0.0,0.0,0.0,0.0,0.0,0.0,0.0,0.0,0.0,0.0,0.0,0.0,0.0
0.0008255221935499181,0.0006703348788557434,0.0005187368275142634,0.0003661240553861377,0.00020693755502635783,3.727751477502042e-05,-0.00013767958971956304,-0.0003162222194838301,-0.0004983073780368523,-0.000684106349010146,-0.0008731301223266404,-0.0010568314182148241,-0.0012358250178096577,-0.0014136884133061148,-0.0015951728502483435,-0.001783537759428301,-0.0019703804944107535,-0.0021565160772868074,-0.0023425045250752272,-0.002529385466945803,-0.002717741407476625,-0.002897561311261245,-0.0030740561702005623,-0.0032536230376469647,-0.0034441521063478513,-0.0036519450555249485,-0.0038682068411795612,-0.004098049127428509,-0.004342430513997384,-0.004600726165357492,-0.004869502681656889,-0.005129607075316557,-0.005381627265906143,-0.005624480772739471,-0.0058592394260938,-0.006087060307788829,-0.006293492674986619,-0.006487340705543108,-0.006673921889944197,-0.0068595355157964714,-0.007049116898350492,-0.007228825702334589,-0.0074101453018609225,-0.007598314244470336,-0.00779805790782415,-0.008011173488912155,-0.008217664460611084,-0.008425680419413262,-0.008636111000008443,-0.008850704721026118,-0.009070380432505992,-0.009274778083737351,-0.009477353800809284,-0.009683775258652109,-0.009900078031341703,-0.010129587376099829,-0.010349853417401907,-0.010573397761818764,-0.010801872465873127,-0.011037092391749027,-0.011279344953018779,0.0,0.0,0.0,0.0,0.0,0.0,0.0,0.0,0.0,0.0,0.0,0.0,0.0,0.0,0.0,0.0,0.0,0.0,0.0,0.0,0.0,0.0,0.0,0.0,0.0,0.0,0.0,0.0,0.0,0.0,0.0,0.0,0.0,0.0,0.0,0.0,0.0,0.0,0.0,0.0,0.0,0.0,0.0,0.0,0.0,0.0,0.0,0.0,0.0,0.0,0.0,0.0,0.0,0.0,0.0,0.0,0.0,0.0,0.0,0.0,0.0,0.0,0.0,0.0,0.0,0.0,0.0,0.0,0.0,0.0,0.0,0.0,0.0,0.0,0.0,0.0,0.0,0.0,0.0,0.0,0.0,0.0,0.0,0.0,0.0,0.0,0.0,0.0,0.0,0.0,0.0,0.0,0.0,0.0,0.0,0.0,0.0,0.0,0.0,0.0,0.0,0.0,0.0,0.0,0.0,0.0,0.0,0.0,0.0,0.0,0.0,0.0,0.0,0.0,0.0,0.0,0.0,0.0,0.0,0.0,0.0,0.0,0.0,0.0,0.0,0.0,0.0,0.0,0.0,0.0,0.0,0.0,0.0,0.0,0.0,0.0,0.0,0.0,0.0,0.0,0.0,0.0,0.0,0.0,0.0,0.0,0.0,0.0,0.0,0.0,0.0,0.0,0.0,0.0,0.0,0.0,0.0,0.0,0.0,0.0,0.0,0.0,0.0,0.0,0.0,0.0,0.0,0.0,0.0,0.0,0.0,0.0,0.0,0.0,0.0,0.0,0.0,0.0,0.0,0.0,0.0,0.0,0.0,0.0,0.0,0.0,0.0,0.0,0.0,0.0,0.0,0.0,0.0,0.0,0.0,0.0,0.0,0.0,0.0,0.0,0.0,0.0,0.0,0.0,0.0,0.0,0.0,0.0,0.0,0.0,0.0,0.0,0.0,0.0,0.0,0.0,0.0,0.0,0.0,0.0,0.0,0.0,0.0,0.0,0.0,0.0,0.0,0.0,0.0,0.0,0.0,0.0,0.0,0.0,0.0,0.0,0.0,0.0,0.0,0.0007174296816091553,0.0005658680793220647,0.00041840771150879874,0.00027050880769662945,0.00011619656544998727,-4.9371737357354196e-05,-0.0002223497411736852,-0.00040237629338261765,-0.0005900705628838241,-0.0007853301032950731,-0.0009863400928456195,-0.001182311814501693,-0.0013715605329924594,-0.001555558676936891,-0.0017381200731579288,-0.001923308448333885,-0.0021052072103777525,-0.0022889728900152674,-0.0024795688884194267,-0.002681320529854259,-0.002895457246039507,-0.003108523791424554,-0.003318339372398959,-0.003519516560359228,-0.003705452272160523,-0.003867606043745129,-0.003984680575874504,-0.004055393478469029,-0.004081901573993993,-0.00407378548028091,-0.004046366228138056,-0.0040054190292278646,-0.003979811311787547,-0.003994937543757911,-0.004072506298179133,-0.004225126412530985,-0.004438724570467708,-0.004712416805998633,-0.005033303250522979,-0.005384878538574094,-0.005748992187423844,-0.006092249558644129,-0.006413438744722492,-0.006712544703405938,-0.00699610826075327,-0.0072728579623167035,-0.007532010381033456,-0.0077907938134600405,-0.00805645988134137,-0.008333413031140302,-0.008621537025833825,-0.008896600365506588,-0.009167221169654259,-0.009434447777299309,-0.009701279505083968,-0.009970216089350942,-0.010220028807176294,-0.010466252138065235,-0.010714029290853343,-0.010968289552230183,-0.011231315954109743,0.0,0.0,0.0,0.0,0.0,0.0,0.0,0.0,0.0,0.0,0.0,0.0,0.0,0.0,0.0,0.0,0.0,0.0,0.0,0.0,0.0,0.0,0.0,0.0,0.0,0.0,0.0,0.0,0.0,0.0,0.0,0.0,0.0,0.0,0.0,0.0,0.0,0.0,0.0,0.0,0.0,0.0,0.0,0.0,0.0,0.0,0.0,0.0,0.0,0.0,0.0,0.0,0.0,0.0,0.0,0.0,0.0,0.0,0.0,0.0,0.0,0.0,0.0,0.0,0.0,0.0,0.0,0.0,0.0,0.0,0.0,0.0,0.0,0.0,0.0,0.0,0.0,0.0,0.0,0.0,0.0,0.0,0.0,0.0,0.0,0.0,0.0,0.0,0.0,0.0,0.0,0.0,0.0,0.0,0.0,0.0,0.0,0.0,0.0,0.0,0.0,0.0,0.0,0.0,0.0,0.0,0.0,0.0,0.0,0.0,0.0,0.0,0.0,0.0,0.0,0.0,0.0,0.0,0.0,0.0,0.0,0.0,0.0,0.0,0.0,0.0,0.0,0.0,0.0,0.0,0.0,0.0,0.0,0.0,0.0,0.0,0.0,0.0,0.0,0.0,0.0,0.0,0.0,0.0,0.0,0.0,0.0,0.0,0.0,0.0,0.0,0.0,0.0,0.0,0.0,0.0,0.0,0.0,0.0,0.0,0.0,0.0,0.0,0.0,0.0,0.0,0.0,0.0,0.0,0.0,0.0,0.0,0.0,0.0,0.0,0.0,0.0,0.0,0.0,0.0,0.0,0.0,0.0,0.0,0.0,0.0,0.0,0.0,0.0,0.0,0.0,0.0,0.0,0.0,0.0,0.0,0.0,0.0,0.0,0.0,0.0,0.0,0.0,0.0,0.0,0.0,0.0,0.0,0.0,0.0,0.0,0.0,0.0,0.0,0.0,0.0,0.0,0.0,0.0,0.0,0.0,0.0,0.0,0.0,0.0,0.0,0.0,0.0,0.0,0.0,0.0,0.0,0.0,0.0,0.0,0.0,0.0,0.0,0.0
-0.009274778083737351,-0.009477353800809284,-0.009683775258652109,-0.009900078031341703,-0.010129587376099829,-0.010349853417401907,-0.010573397761818764,-0.010801872465873127,-0.011037092391749027,-0.011279344953018779,-0.011503374008908244,-0.011725204086702242,-0.011950070280450755,-0.012183699898121647,-0.012429102529937728,-0.012659604024515091,-0.012891405767228853,-0.013126736783699623,-0.013368088913543687,-0.0136164127979724,-0.013843173088584373,-0.014069038409981386,-0.014300529313628916,-0.014544320337085394,-0.014803723066007073,-0.015047682335887613,-0.015295435621900767,-0.015548581706066156,-0.015808819932057502,-0.016076302229871615,-0.016317803112309317,-0.016558288310586727,-0.01680546834336272,-0.01706746426802013,-0.017348881393736162,-0.01761515801920489,-0.017890350151350556,-0.018176122397505833,-0.01847332431003222,-0.018780431776552108,-0.019057835064106517,-0.01933282866332639,-0.019612182990440947,-0.01990364866924752,-0.020211982159368053,-0.020499065758169618,-0.02079408869664411,-0.021100430398430476,-0.02142023602628718,-0.02175241036705829,-0.022052540540915166,-0.022350901216712224,-0.022653206104778775,-0.02296598125786116,-0.023292838574748523,-0.02359057970230718,-0.023892743662361285,-0.024203999651040867,-0.024528074862447232,-0.024865262793838504,-0.0251676214828654,0.0,0.0,0.0,0.0,0.0,0.0,0.0,0.0,0.0,0.0,0.0,0.0,0.0,0.0,0.0,0.0,0.0,0.0,0.0,0.0,0.0,0.0,0.0,0.0,0.0,0.0,0.0,0.0,0.0,0.0,0.0,0.0,0.0,0.0,0.0,0.0,0.0,0.0,0.0,0.0,0.0,0.0,0.0,0.0,0.0,0.0,0.0,0.0,0.0,0.0,0.0,0.0,0.0,0.0,0.0,0.0,0.0,0.0,0.0,0.0,0.0,0.0,0.0,0.0,0.0,0.0,0.0,0.0,0.0,0.0,0.0,0.0,0.0,0.0,0.0,0.0,0.0,0.0,0.0,0.0,0.0,0.0,0.0,0.0,0.0,0.0,0.0,0.0,0.0,0.0,0.0,0.0,0.0,0.0,0.0,0.0,0.0,0.0,0.0,0.0,0.0,0.0,0.0,0.0,0.0,0.0,0.0,0.0,0.0,0.0,0.0,0.0,0.0,0.0,0.0,0.0,0.0,0.0,0.0,0.0,0.0,0.0,0.0,0.0,0.0,0.0,0.0,0.0,0.0,0.0,0.0,0.0,0.0,0.0,0.0,0.0,0.0,0.0,0.0,0.0,0.0,0.0,0.0,0.0,0.0,0.0,0.0,0.0,0.0,0.0,0.0,0.0,0.0,0.0,0.0,0.0,0.0,0.0,0.0,0.0,0.0,0.0,0.0,0.0,0.0,0.0,0.0,0.0,0.0,0.0,0.0,0.0,0.0,0.0,0.0,0.0,0.0,0.0,0.0,0.0,0.0,0.0,0.0,0.0,0.0,0.0,0.0,0.0,0.0,0.0,0.0,0.0,0.0,0.0,0.0,0.0,0.0,0.0,0.0,0.0,0.0,0.0,0.0,0.0,0.0,0.0,0.0,0.0,0.0,0.0,0.0,0.0,0.0,0.0,0.0,0.0,0.0,0.0,0.0,0.0,0.0,0.0,0.0,0.0,0.0,0.0,0.0,0.0,0.0,0.0,0.0,0.0,0.0,0.0,0.0,0.0,0.0,0.0,0.0,-0.008896600365506588,-0.009167221169654259,-0.009434447777299309,-0.009701279505083968,-0.009970216089350942,-0.010220028807176294,-0.010466252138065235,-0.010714029290853343,-0.010968289552230183,-0.011231315954109743,-0.01147826001524242,-0.011724471798110347,-0.011973454398688473,-0.012228953422136816,-0.012492415818868544,-0.012736366574485533,-0.012977588693144207,-0.01321959430416143,-0.013466581423526606,-0.01372107195608552,-0.013955346899973483,-0.014190277411247995,-0.01443146761478836,-0.01468405788806066,-0.014949728093302498,-0.015196129694188022,-0.015442328667304927,-0.0156904489947854,-0.0159434431759668,-0.01620306541946724,-0.016438023479654038,-0.016673389839231046,-0.016917127501186686,-0.017176921378372553,-0.017456402745631986,-0.01772085869209549,-0.01799154914188427,-0.01826996682208983,-0.018557615150426084,-0.018854115523249552,-0.01912185493317152,-0.019387876602111585,-0.019659833421898774,-0.01994612454538967,-0.02025182830086712,-0.020539286343950636,-0.020836614019200016,-0.021146778192489255,-0.021471461587470275,-0.021809037739828643,-0.022114835845105252,-0.02241802941345452,-0.02272387880264819,-0.023038716354220258,-0.02336624717879017,-0.023663815965817916,-0.023965233636445857,-0.02427569540556476,-0.024599351893449087,-0.02493668977395502,-0.025239814248606603,0.0,0.0,0.0,0.0,0.0,0.0,0.0,0.0,0.0,0.0,0.0,0.0,0.0,0.0,0.0,0.0,0.0,0.0,0.0,0.0,0.0,0.0,0.0,0.0,0.0,0.0,0.0,0.0,0.0,0.0,0.0,0.0,0.0,0.0,0.0,0.0,0.0,0.0,0.0,0.0,0.0,0.0,0.0,0.0,0.0,0.0,0.0,0.0,0.0,0.0,0.0,0.0,0.0,0.0,0.0,0.0,0.0,0.0,0.0,0.0,0.0,0.0,0.0,0.0,0.0,0.0,0.0,0.0,0.0,0.0,0.0,0.0,0.0,0.0,0.0,0.0,0.0,0.0,0.0,0.0,0.0,0.0,0.0,0.0,0.0,0.0,0.0,0.0,0.0,0.0,0.0,0.0,0.0,0.0,0.0,0.0,0.0,0.0,0.0,0.0,0.0,0.0,0.0,0.0,0.0,0.0,0.0,0.0,0.0,0.0,0.0,0.0,0.0,0.0,0.0,0.0,0.0,0.0,0.0,0.0,0.0,0.0,0.0,0.0,0.0,0.0,0.0,0.0,0.0,0.0,0.0,0.0,0.0,0.0,0.0,0.0,0.0,0.0,0.0,0.0,0.0,0.0,0.0,0.0,0.0,0.0,0.0,0.0,0.0,0.0,0.0,0.0,0.0,0.0,0.0,0.0,0.0,0.0,0.0,0.0,0.0,0.0,0.0,0.0,0.0,0.0,0.0,0.0,0.0,0.0,0.0,0.0,0.0,0.0,0.0,0.0,0.0,0.0,0.0,0.0,0.0,0.0,0.0,0.0,0.0,0.0,0.0,0.0,0.0,0.0,0.0,0.0,0.0,0.0,0.0,0.0,0.0,0.0,0.0,0.0,0.0,0.0,0.0,0.0,0.0,0.0,0.0,0.0,0.0,0.0,0.0,0.0,0.0,0.0,0.0,0.0,0.0,0.0,0.0,0.0,0.0,0.0,0.0,0.0,0.0,0.0,0.0,0.0,0.0,0.0,0.0,0.0,0.0,0.0,0.0,0.0,0.0,0.0,0.0
-0.022350901216712224,-0.022653206104778775,-0.02296598125786116,-0.023292838574748523,-0.02359057970230718,-0.023892743662361285,-0.024203999651040867,-0.024528074862447232,-0.024865262793838504,-0.0251676214828654,-0.02547023703468108,-0.025779193053617717,-0.026100744986708405,-0.026437687012928486,-0.02674128114375233,-0.027048802135384846,-0.027365076782213265,-0.027694237749796864,-0.028037012364135756,-0.02834126621244656,-0.02864699345765606,-0.02896100476917142,-0.029289901109052285,-0.029636337715343027,-0.029946494027251462,-0.03026175786515439,-0.030587040141911836,-0.030926477380870645,-0.03128060697114992,-0.031592322300113905,-0.03190604636571113,-0.032228893611743616,-0.032567637189314956,-0.03292487622695682,-0.03324190825098085,-0.033564768155120724,-0.03389878508361582,-0.03424831689931043,-0.03461379251531036,-0.03493300074065791,-0.035254887213247973,-0.03558668081517821,-0.035935142074397484,-0.0363027088036639,-0.03662569466534098,-0.03695514904400073,-0.03729690578496935,-0.03765559220384508,-0.038031541504196464,-0.038669270520848266,-0.039320187380687634,-0.03980592407463737,-0.039966796300448124,-0.03976037420472902,-0.039888612359069923,-0.04013052656266825,-0.04051852776054426,-0.041011447295855076,-0.041518076611694606,-0.042632962117235475,-0.043671359036520654,0.0,0.0,0.0,0.0,0.0,0.0,0.0,0.0,0.0,0.0,0.0,0.0,0.0,0.0,0.0,0.0,0.0,0.0,0.0,0.0,0.0,0.0,0.0,0.0,0.0,0.0,0.0,0.0,0.0,0.0,0.0,0.0,0.0,0.0,0.0,0.0,0.0,0.0,0.0,0.0,0.0,0.0,0.0,0.0,0.0,0.0,0.0,0.0,0.0,0.0,0.0,0.0,0.0,0.0,0.0,0.0,0.0,0.0,0.0,0.0,0.0,0.0,0.0,0.0,0.0,0.0,0.0,0.0,0.0,0.0,0.0,0.0,0.0,0.0,0.0,0.0,0.0,0.0,0.0,0.0,0.0,0.0,0.0,0.0,0.0,0.0,0.0,0.0,0.0,0.0,0.0,0.0,0.0,0.0,0.0,0.0,0.0,0.0,0.0,0.0,0.0,0.0,0.0,0.0,0.0,0.0,0.0,0.0,0.0,0.0,0.0,0.0,0.0,0.0,0.0,0.0,0.0,0.0,0.0,0.0,0.0,0.0,0.0,0.0,0.0,0.0,0.0,0.0,0.0,0.0,0.0,0.0,0.0,0.0,0.0,0.0,0.0,0.0,0.0,0.0,0.0,0.0,0.0,0.0,0.0,0.0,0.0,0.0,0.0,0.0,0.0,0.0,0.0,0.0,0.0,0.0,0.0,0.0,0.0,0.0,0.0,0.0,0.0,0.0,0.0,0.0,0.0,0.0,0.0,0.0,0.0,0.0,0.0,0.0,0.0,0.0,0.0,0.0,0.0,0.0,0.0,0.0,0.0,0.0,0.0,0.0,0.0,0.0,0.0,0.0,0.0,0.0,0.0,0.0,0.0,0.0,0.0,0.0,0.0,0.0,0.0,0.0,0.0,0.0,0.0,0.0,0.0,0.0,0.0,0.0,0.0,0.0,0.0,0.0,0.0,0.0,0.0,0.0,0.0,0.0,0.0,0.0,0.0,0.0,0.0,0.0,0.0,0.0,0.0,0.0,0.0,0.0,0.0,0.0,0.0,0.0,0.0,0.0,0.0,-0.02241802941345452,-0.02272387880264819,-0.023038716354220258,-0.02336624717879017,-0.023663815965817916,-0.023965233636445857,-0.02427569540556476,-0.024599351893449087,-0.02493668977395502,-0.025239814248606603,-0.0255432621253688,-0.025852474664228225,-0.02617301841171121,-0.02650713236911987,-0.02680591443509136,-0.02710664391950256,-0.02741446790648416,-0.027734066711828417,-0.02806683683644294,-0.028361409090460695,-0.028658260984683177,-0.028964403995080105,-0.029286367927365,-0.02962654130376601,-0.02993084864070931,-0.030240333180601157,-0.030559571483880627,-0.030892503967909175,-0.031239672060428814,-0.03154430312013155,-0.031851123851141194,-0.032167533662891025,-0.03250052071949698,-0.03285280281709162,-0.033165848630198454,-0.0334855279038374,-0.03381688991202661,-0.03416395815740889,-0.034526873048206695,-0.03484345526801193,-0.03516250400412568,-0.03549124962212089,-0.03583653343577571,-0.03620094327932177,-0.0365212197246908,-0.036848401653646785,-0.03718830607021141,-0.03754543832997529,-0.03791995156415971,-0.03855479967020336,-0.039202630349431764,-0.03968580982550951,-0.039845342206170274,-0.03963895984899766,-0.0397649147622109,-0.040003646504718604,-0.040387498939245856,-0.040875602108152734,-0.04137729322611516,-0.04248362896442092,-0.04351402545667582,0.0,0.0,0.0,0.0,0.0,0.0,0.0,0.0,0.0,0.0,0.0,0.0,0.0,0.0,0.0,0.0,0.0,0.0,0.0,0.0,0.0,0.0,0.0,0.0,0.0,0.0,0.0,0.0,0.0,0.0,0.0,0.0,0.0,0.0,0.0,0.0,0.0,0.0,0.0,0.0,0.0,0.0,0.0,0.0,0.0,0.0,0.0,0.0,0.0,0.0,0.0,0.0,0.0,0.0,0.0,0.0,0.0,0.0,0.0,0.0,0.0,0.0,0.0,0.0,0.0,0.0,0.0,0.0,0.0,0.0,0.0,0.0,0.0,0.0,0.0,0.0,0.0,0.0,0.0,0.0,0.0,0.0,0.0,0.0,0.0,0.0,0.0,0.0,0.0,0.0,0.0,0.0,0.0,0.0,0.0,0.0,0.0,0.0,0.0,0.0,0.0,0.0,0.0,0.0,0.0,0.0,0.0,0.0,0.0,0.0,0.0,0.0,0.0,0.0,0.0,0.0,0.0,0.0,0.0,0.0,0.0,0.0,0.0,0.0,0.0,0.0,0.0,0.0,0.0,0.0,0.0,0.0,0.0,0.0,0.0,0.0,0.0,0.0,0.0,0.0,0.0,0.0,0.0,0.0,0.0,0.0,0.0,0.0,0.0,0.0,0.0,0.0,0.0,0.0,0.0,0.0,0.0,0.0,0.0,0.0,0.0,0.0,0.0,0.0,0.0,0.0,0.0,0.0,0.0,0.0,0.0,0.0,0.0,0.0,0.0,0.0,0.0,0.0,0.0,0.0,0.0,0.0,0.0,0.0,0.0,0.0,0.0,0.0,0.0,0.0,0.0,0.0,0.0,0.0,0.0,0.0,0.0,0.0,0.0,0.0,0.0,0.0,0.0,0.0,0.0,0.0,0.0,0.0,0.0,0.0,0.0,0.0,0.0,0.0,0.0,0.0,0.0,0.0,0.0,0.0,0.0,0.0,0.0,0.0,0.0,0.0,0.0,0.0,0.0,0.0,0.0,0.0,0.0,0.0,0.0,0.0,0.0,0.0,0.0
-0.03980592407463737,-0.039966796300448124,-0.03976037420472902,-0.039888612359069923,-0.04013052656266825,-0.04051852776054426,-0.041011447295855076,-0.041518076611694606,-0.042632962117235475,-0.043671359036520654,-0.044261817752126655,-0.0441317207151205,-0.04327577901866019,-0.04284674430767392,-0.04270789622310401,-0.043063226455387085,-0.04391511695843132,-0.045060608093644185,-0.04701651450620263,-0.048681822415831584,-0.049393029169157235,-0.04874643822849099,-0.04684543716862817,-0.04525034291136541,-0.044242016882782544,-0.044428843772955535,-0.04600266642751077,-0.0486261875242861,-0.05237643112608696,-0.055462055524836684,-0.05654192290613766,-0.0547985621609413,-0.05040693787994402,-0.04556123465521055,-0.04171550011961016,-0.040854218503310925,-0.044314973288798507,-0.052158931911582225,-0.0636167414937747,-0.07466131395985016,-0.08027612157989712,-0.07495486919480353,-0.05391092594322042,-0.015021775311001451,0.04272480172928059,0.11723308000461131,0.2039725010285319,0.29668859231569694,0.38770278787595547,0.4713426798175359,0.5433352669067589,0.6018023238707652,0.6472881105746143,0.6815559622555971,0.7088774119114551,0.7334499410677151,0.7587524850210225,0.7867472630934143,0.8168392385218766,0.8480598927901551,0.8781801387726768,0.0,0.0,0.0,0.0,0.0,0.0,0.0,0.0,0.0,0.0,0.0,0.0,0.0,0.0,0.0,0.0,0.0,0.0,0.0,0.0,0.0,0.0,0.0,0.0,0.0,0.0,0.0,0.0,0.0,0.0,0.0,0.0,0.0,0.0,0.0,0.0,0.0,0.0,0.0,0.0,0.0,0.0,0.0,0.0,0.0,0.0,0.0,0.0,0.0,0.0,0.0,0.0,0.0,0.0,0.0,0.0,0.0,0.0,0.0,0.0,0.0,0.0,0.0,0.0,0.0,0.0,0.0,0.0,0.0,0.0,0.0,0.0,0.0,0.0,0.0,0.0,0.0,0.0,0.0,0.0,0.0,0.0,0.0,0.0,0.0,0.0,0.0,0.0,0.0,0.0,0.0,0.0,0.0,0.0,0.0,0.0,0.0,0.0,0.0,0.0,0.0,0.0,0.0,0.0,0.0,0.0,0.0,0.0,0.0,0.0,0.0,0.0,0.0,0.0,0.0,0.0,0.0,0.0,0.0,0.0,0.0,0.0,0.0,0.0,0.0,0.0,0.0,0.0,0.0,0.0,0.0,0.0,0.0,0.0,0.0,0.0,0.0,0.0,0.0,0.0,0.0,0.0,0.0,0.0,0.0,0.0,0.0,0.0,0.0,0.0,0.0,0.0,0.0,0.0,0.0,0.0,0.0,0.0,0.0,0.0,0.0,0.0,0.0,0.0,0.0,0.0,0.0,0.0,0.0,0.0,0.0,0.0,0.0,0.0,0.0,0.0,0.0,0.0,0.0,0.0,0.0,0.0,0.0,0.0,0.0,0.0,0.0,0.0,0.0,0.0,0.0,0.0,0.0,0.0,0.0,0.0,0.0,0.0,0.0,0.0,0.0,0.0,0.0,0.0,0.0,0.0,0.0,0.0,0.0,0.0,0.0,0.0,0.0,0.0,0.0,0.0,0.0,0.0,0.0,0.0,0.0,0.0,0.0,0.0,0.0,0.0,0.0,0.0,0.0,0.0,0.0,0.0,0.0,0.0,0.0,0.0,0.0,0.0,0.0,-0.03968580982550951,-0.039845342206170274,-0.03963895984899766,-0.0397649147622109,-0.040003646504718604,-0.040387498939245856,-0.040875602108152734,-0.04137729322611516,-0.04248362896442092,-0.04351402545667582,-0.0440992013781423,-0.043968142471364255,-0.04311562660323267,-0.04268739504947097,-0.04254796945259603,-0.04290022210137543,-0.043746512551528643,-0.04488496225846496,-0.04682872886195214,-0.04848349667613147,-0.04918956681787193,-0.04854557303844025,-0.046654297913697254,-0.045066373811630284,-0.04406160772922761,-0.04424504083571313,-0.045807592941148625,-0.04841404324847314,-0.05214031478810006,-0.055205929883286466,-0.05627749756108381,-0.054542187677652586,-0.05017378858324902,-0.04535291746732214,-0.041525777196658224,-0.04066574693213291,-0.0441032469241006,-0.051899645237521906,-0.06328958838071357,-0.07426946584203845,-0.07985066282750657,-0.07455664235965025,-0.05362550189179478,-0.014943003308132417,0.04249956528727995,0.11661996331914411,0.20291301670803588,0.29515702081254785,0.3857125394943652,0.46893169143414454,0.5405575824338593,0.5987150166282883,0.6439395435168905,0.6779826988668792,0.7050924613523336,0.7294470814274637,0.7545130103266959,0.7822499707336067,0.8120754175769918,0.8430326889906482,0.8729094342312526,0.0,0.0,0.0,0.0,0.0,0.0,0.0,0.0,0.0,0.0,0.0,0.0,0.0,0.0,0.0,0.0,0.0,0.0,0.0,0.0,0.0,0.0,0.0,0.0,0.0,0.0,0.0,0.0,0.0,0.0,0.0,0.0,0.0,0.0,0.0,0.0,0.0,0.0,0.0,0.0,0.0,0.0,0.0,0.0,0.0,0.0,0.0,0.0,0.0,0.0,0.0,0.0,0.0,0.0,0.0,0.0,0.0,0.0,0.0,0.0,0.0,0.0,0.0,0.0,0.0,0.0,0.0,0.0,0.0,0.0,0.0,0.0,0.0,0.0,0.0,0.0,0.0,0.0,0.0,0.0,0.0,0.0,0.0,0.0,0.0,0.0,0.0,0.0,0.0,0.0,0.0,0.0,0.0,0.0,0.0,0.0,0.0,0.0,0.0,0.0,0.0,0.0,0.0,0.0,0.0,0.0,0.0,0.0,0.0,0.0,0.0,0.0,0.0,0.0,0.0,0.0,0.0,0.0,0.0,0.0,0.0,0.0,0.0,0.0,0.0,0.0,0.0,0.0,0.0,0.0,0.0,0.0,0.0,0.0,0.0,0.0,0.0,0.0,0.0,0.0,0.0,0.0,0.0,0.0,0.0,0.0,0.0,0.0,0.0,0.0,0.0,0.0,0.0,0.0,0.0,0.0,0.0,0.0,0.0,0.0,0.0,0.0,0.0,0.0,0.0,0.0,0.0,0.0,0.0,0.0,0.0,0.0,0.0,0.0,0.0,0.0,0.0,0.0,0.0,0.0,0.0,0.0,0.0,0.0,0.0,0.0,0.0,0.0,0.0,0.0,0.0,0.0,0.0,0.0,0.0,0.0,0.0,0.0,0.0,0.0,0.0,0.0,0.0,0.0,0.0,0.0,0.0,0.0,0.0,0.0,0.0,0.0,0.0,0.0,0.0,0.0,0.0,0.0,0.0,0.0,0.0,0.0,0.0,0.0,0.0,0.0,0.0,0.0,0.0,0.0,0.0,0.0,0.0,0.0,0.0,0.0,0.0,0.0,0.0
0.6018023238707652,0.6472881105746143,0.6815559622555971,0.7088774119114551,0.7334499410677151,0.7587524850210225,0.7867472630934143,0.8168392385218766,0.8480598927901551,0.8781801387726768,0.9048307369255798,0.9262064156122142,0.9408983007746404,0.9499396481044348,0.9551680712515322,0.9589542814353288,0.9634284660968252,0.9692055966768595,0.9768428165106406,0.9855876127979021,0.9940395871451914,1.0006505165814363,1.0036532731539394,1.0030977731651485,0.9996924232170237,0.994812652980689,0.9899760322011781,0.985753255255205,0.982980259504292,0.981512278627487,0.9806251102306965,0.9793015478209198,0.9760765903636068,0.9708174610024335,0.9637806324072568,0.9557305430239181,0.9476088965743329,0.9396847968745795,0.9326708092803718,0.9266269518258632,0.9212309198485958,0.9159162453277462,0.9096247481558385,0.9022885045190113,0.8940032236711795,0.8851744197674162,0.8763194279857047,0.867245627664508,0.8587974391228703,0.8510318619274211,0.8437768386883607,0.8367226106436633,0.8287761121315206,0.8206648431032053,0.8123621182685966,0.8039255753779806,0.7954713194897086,0.7863149983462528,0.7776250220906262,0.769455871540333,0.7617133621395604,0.0,0.0,0.0,0.0,0.0,0.0,0.0,0.0,0.0,0.0,0.0,0.0,0.0,0.0,0.0,0.0,0.0,0.0,0.0,0.0,0.0,0.0,0.0,0.0,0.0,0.0,0.0,0.0,0.0,0.0,0.0,0.0,0.0,0.0,0.0,0.0,0.0,0.0,0.0,0.0,0.0,0.0,0.0,0.0,0.0,0.0,0.0,0.0,0.0,0.0,0.0,0.0,0.0,0.0,0.0,0.0,0.0,0.0,0.0,0.0,0.0,0.0,0.0,0.0,0.0,0.0,0.0,0.0,0.0,0.0,0.0,0.0,0.0,0.0,0.0,0.0,0.0,0.0,0.0,0.0,0.0,0.0,0.0,0.0,0.0,0.0,0.0,0.0,0.0,0.0,0.0,0.0,0.0,0.0,0.0,0.0,0.0,0.0,0.0,0.0,0.0,0.0,0.0,0.0,0.0,0.0,0.0,0.0,0.0,0.0,0.0,0.0,0.0,0.0,0.0,0.0,0.0,0.0,0.0,0.0,0.0,0.0,0.0,0.0,0.0,0.0,0.0,0.0,0.0,0.0,0.0,0.0,0.0,0.0,0.0,0.0,0.0,0.0,0.0,0.0,0.0,0.0,0.0,0.0,0.0,0.0,0.0,0.0,0.0,0.0,0.0,0.0,0.0,0.0,0.0,0.0,0.0,0.0,0.0,0.0,0.0,0.0,0.0,0.0,0.0,0.0,0.0,0.0,0.0,0.0,0.0,0.0,0.0,0.0,0.0,0.0,0.0,0.0,0.0,0.0,0.0,0.0,0.0,0.0,0.0,0.0,0.0,0.0,0.0,0.0,0.0,0.0,0.0,0.0,0.0,0.0,0.0,0.0,0.0,0.0,0.0,0.0,0.0,0.0,0.0,0.0,0.0,0.0,0.0,0.0,0.0,0.0,0.0,0.0,0.0,0.0,0.0,0.0,0.0,0.0,0.0,0.0,0.0,0.0,0.0,0.0,0.0,0.0,0.0,0.0,0.0,0.0,0.0,0.0,0.0,0.0,0.0,0.0,0.0,0.5987150166282883,0.6439395435168905,0.6779826988668792,0.7050924613523336,0.7294470814274637,0.7545130103266959,0.7822499707336067,0.8120754175769918,0.8430326889906482,0.8729094342312526,0.8993509073216872,0.920560397950323,0.9351340199101779,0.9440942565757179,0.9492640457343214,0.9529976654562359,0.9574120858225922,0.9631201473392408,0.9706775182600118,0.9793385996342441,0.9877133367453228,0.9942637736948613,0.9972336000772729,0.996670840807291,0.9932776821809726,0.9884192753338003,0.9836025951878454,0.9793947552275614,0.976626795679434,0.9751559988139259,0.9742640803778847,0.9729414166808296,0.9697331293617324,0.9645070082880982,0.9575171416109245,0.949521930457393,0.9414558229768772,0.9335853634027987,0.9266178884779267,0.9206130643518095,0.9152511826642273,0.9099702292729249,0.9037197601875702,0.8964327537116273,0.888204453031651,0.8794374672711835,0.8706451603409556,0.8616352297821721,0.8532462349553276,0.8455342451623025,0.8383280708201627,0.8313200914089864,0.8234243873150782,0.815365116890715,0.807116182352406,0.7987349808429206,0.7903367467278682,0.7812409983149015,0.7726086652845036,0.764493245368854,0.7568004642463674,0.0,0.0,0.0,0.0,0.0,0.0,0.0,0.0,0.0,0.0,0.0,0.0,0.0,0.0,0.0,0.0,0.0,0.0,0.0,0.0,0.0,0.0,0.0,0.0,0.0,0.0,0.0,0.0,0.0,0.0,0.0,0.0,0.0,0.0,0.0,0.0,0.0,0.0,0.0,0.0,0.0,0.0,0.0,0.0,0.0,0.0,0.0,0.0,0.0,0.0,0.0,0.0,0.0,0.0,0.0,0.0,0.0,0.0,0.0,0.0,0.0,0.0,0.0,0.0,0.0,0.0,0.0,0.0,0.0,0.0,0.0,0.0,0.0,0.0,0.0,0.0,0.0,0.0,0.0,0.0,0.0,0.0,0.0,0.0,0.0,0.0,0.0,0.0,0.0,0.0,0.0,0.0,0.0,0.0,0.0,0.0,0.0,0.0,0.0,0.0,0.0,0.0,0.0,0.0,0.0,0.0,0.0,0.0,0.0,0.0,0.0,0.0,0.0,0.0,0.0,0.0,0.0,0.0,0.0,0.0,0.0,0.0,0.0,0.0,0.0,0.0,0.0,0.0,0.0,0.0,0.0,0.0,0.0,0.0,0.0,0.0,0.0,0.0,0.0,0.0,0.0,0.0,0.0,0.0,0.0,0.0,0.0,0.0,0.0,0.0,0.0,0.0,0.0,0.0,0.0,0.0,0.0,0.0,0.0,0.0,0.0,0.0,0.0,0.0,0.0,0.0,0.0,0.0,0.0,0.0,0.0,0.0,0.0,0.0,0.0,0.0,0.0,0.0,0.0,0.0,0.0,0.0,0.0,0.0,0.0,0.0,0.0,0.0,0.0,0.0,0.0,0.0,0.0,0.0,0.0,0.0,0.0,0.0,0.0,0.0,0.0,0.0,0.0,0.0,0.0,0.0,0.0,0.0,0.0,0.0,0.0,0.0,0.0,0.0,0.0,0.0,0.0,0.0,0.0,0.0,0.0,0.0,0.0,0.0,0.0,0.0,0.0,0.0,0.0,0.0,0.0,0.0,0.0,0.0,0.0,0.0,0.0,0.0,0.0
0.5787839669539621,0.5722966916482688,0.5657967485565837,0.558424276595177,0.5513097672116857,0.5444942435985306,0.5379563328012472,0.5316464908933382,0.5247834025803625,0.5183910323789833,0.5123645447844851,0.5065104124864258,0.5006433775465466,0.49397012709778815,0.4875196633347249,0.4813284094198953,0.47538108296034787,0.4696402641997552,0.46341207311039706,0.4576288919079711,0.4521923676903031,0.4469188536187486,0.4416313999658327,0.43561355663898854,0.429790451696046,0.4241948320138721,0.41881537735424423,0.4136225357319103,0.40800319764052284,0.4027944607776264,0.3979052942269038,0.3931655220890668,0.3884109475470381,0.38300213785224974,0.3777640236134485,0.37272591478605865,0.36787906338957427,0.3631993593621659,0.35814730954473323,0.35346801061072824,0.3490779226487309,0.34482151361545327,0.340549015034992,0.3356945047611528,0.3309900287383809,0.3264623200215145,0.3221050375638926,0.3178986707078182,0.31337064878062876,0.3091804656096972,0.3052516337447475,0.3014425914863822,0.29761725569818187,0.2932766238474327,0.28906701666594387,0.2850121578330861,0.2811071298439207,0.2773358406885456,0.27328546571863216,0.26953752267379444,0.2660225740659756,0.0,0.0,0.0,0.0,0.0,0.0,0.0,0.0,0.0,0.0,0.0,0.0,0.0,0.0,0.0,0.0,0.0,0.0,0.0,0.0,0.0,0.0,0.0,0.0,0.0,0.0,0.0,0.0,0.0,0.0,0.0,0.0,0.0,0.0,0.0,0.0,0.0,0.0,0.0,0.0,0.0,0.0,0.0,0.0,0.0,0.0,0.0,0.0,0.0,0.0,0.0,0.0,0.0,0.0,0.0,0.0,0.0,0.0,0.0,0.0,0.0,0.0,0.0,0.0,0.0,0.0,0.0,0.0,0.0,0.0,0.0,0.0,0.0,0.0,0.0,0.0,0.0,0.0,0.0,0.0,0.0,0.0,0.0,0.0,0.0,0.0,0.0,0.0,0.0,0.0,0.0,0.0,0.0,0.0,0.0,0.0,0.0,0.0,0.0,0.0,0.0,0.0,0.0,0.0,0.0,0.0,0.0,0.0,0.0,0.0,0.0,0.0,0.0,0.0,0.0,0.0,0.0,0.0,0.0,0.0,0.0,0.0,0.0,0.0,0.0,0.0,0.0,0.0,0.0,0.0,0.0,0.0,0.0,0.0,0.0,0.0,0.0,0.0,0.0,0.0,0.0,0.0,0.0,0.0,0.0,0.0,0.0,0.0,0.0,0.0,0.0,0.0,0.0,0.0,0.0,0.0,0.0,0.0,0.0,0.0,0.0,0.0,0.0,0.0,0.0,0.0,0.0,0.0,0.0,0.0,0.0,0.0,0.0,0.0,0.0,0.0,0.0,0.0,0.0,0.0,0.0,0.0,0.0,0.0,0.0,0.0,0.0,0.0,0.0,0.0,0.0,0.0,0.0,0.0,0.0,0.0,0.0,0.0,0.0,0.0,0.0,0.0,0.0,0.0,0.0,0.0,0.0,0.0,0.0,0.0,0.0,0.0,0.0,0.0,0.0,0.0,0.0,0.0,0.0,0.0,0.0,0.0,0.0,0.0,0.0,0.0,0.0,0.0,0.0,0.0,0.0,0.0,0.0,0.0,0.0,0.0,0.0,0.0,0.0,0.5749440532146091,0.5685052580114331,0.5620544322723341,0.5547365981917637,0.5476742121767643,0.5409075862503794,0.5344153039051704,0.5281482176145236,0.5213304294322345,0.5149795811981112,0.5089918811583137,0.5031753480691158,0.49734610427825215,0.49071610963275897,0.48430760103270404,0.4781566304303078,0.47224785975572287,0.4665439909419808,0.46035565227170466,0.4546091658148086,0.4492068696932863,0.4439663932180726,0.4387120322995156,0.43273208891280934,0.42694574745343267,0.42138553408378326,0.4160401340420989,0.41088007365705037,0.40529606084754993,0.40011968549436533,0.39526044667035,0.3905492875582347,0.38582317755177886,0.38044699067033083,0.37524053327155393,0.3702331580661175,0.36541635995675625,0.36076628144650735,0.3557469101163234,0.35109837603773963,0.34673753408090546,0.3425097029949335,0.33826594395142084,0.33344392149783353,0.3287707967990834,0.32427309626517126,0.3199445027803868,0.31576560645633434,0.3112669163560354,0.3071035027874214,0.3031993611705111,0.29941389840912047,0.29561203561464483,0.2912984253295255,0.28711514019493134,0.2830858249041016,0.27920560738258376,0.2754584647729554,0.2714346101489066,0.2677113049318282,0.26421928413070794,0.0,0.0,0.0,0.0,0.0,0.0,0.0,0.0,0.0,0.0,0.0,0.0,0.0,0.0,0.0,0.0,0.0,0.0,0.0,0.0,0.0,0.0,0.0,0.0,0.0,0.0,0.0,0.0,0.0,0.0,0.0,0.0,0.0,0.0,0.0,0.0,0.0,0.0,0.0,0.0,0.0,0.0,0.0,0.0,0.0,0.0,0.0,0.0,0.0,0.0,0.0,0.0,0.0,0.0,0.0,0.0,0.0,0.0,0.0,0.0,0.0,0.0,0.0,0.0,0.0,0.0,0.0,0.0,0.0,0.0,0.0,0.0,0.0,0.0,0.0,0.0,0.0,0.0,0.0,0.0,0.0,0.0,0.0,0.0,0.0,0.0,0.0,0.0,0.0,0.0,0.0,0.0,0.0,0.0,0.0,0.0,0.0,0.0,0.0,0.0,0.0,0.0,0.0,0.0,0.0,0.0,0.0,0.0,0.0,0.0,0.0,0.0,0.0,0.0,0.0,0.0,0.0,0.0,0.0,0.0,0.0,0.0,0.0,0.0,0.0,0.0,0.0,0.0,0.0,0.0,0.0,0.0,0.0,0.0,0.0,0.0,0.0,0.0,0.0,0.0,0.0,0.0,0.0,0.0,0.0,0.0,0.0,0.0,0.0,0.0,0.0,0.0,0.0,0.0,0.0,0.0,0.0,0.0,0.0,0.0,0.0,0.0,0.0,0.0,0.0,0.0,0.0,0.0,0.0,0.0,0.0,0.0,0.0,0.0,0.0,0.0,0.0,0.0,0.0,0.0,0.0,0.0,0.0,0.0,0.0,0.0,0.0,0.0,0.0,0.0,0.0,0.0,0.0,0.0,0.0,0.0,0.0,0.0,0.0,0.0,0.0,0.0,0.0,0.0,0.0,0.0,0.0,0.0,0.0,0.0,0.0,0.0,0.0,0.0,0.0,0.0,0.0,0.0,0.0,0.0,0.0,0.0,0.0,0.0,0.0,0.0,0.0,0.0,0.0,0.0,0.0,0.0,0.0,0.0,0.0,0.0,0.0,0.0,0.0
0.3014425914863822,0.29761725569818187,0.2932766238474327,0.28906701666594387,0.2850121578330861,0.2811071298439207,0.2773358406885456,0.27328546571863216,0.26953752267379444,0.2660225740659756,0.26261290729345577,0.25918619402335863,0.2553053353840795,0.2515393935011128,0.24790981238754137,0.24441316489168616,0.24103654735817168,0.23742188794354985,0.23407968314999827,0.23094679346438152,0.22790778841564174,0.22485227316042136,0.22139812145205667,0.21804361273655273,0.2148070981238648,0.21168551480640738,0.20866799896267108,0.20544437832083112,0.20246163688799565,0.19966307697655525,0.19694563389281186,0.1942112142916378,0.19112811810298702,0.18813251635617917,0.18524098976698516,0.18245132203396536,0.1797544296206045,0.17688235967519886,0.1742241616124539,0.17172786778730423,0.16930056901229262,0.1668546010303813,0.16410325755996347,0.1614277698415619,0.15884477840453906,0.156355282836416,0.15395477244015807,0.1514159851325745,0.14907864043574265,0.14689642125368435,0.14478508567397863,0.14266347138337374,0.14027942121939738,0.13795709988656402,0.13570344918177396,0.13351187010087273,0.13137217032658938,0.12908577435189106,0.12694496024563443,0.12491025362989451,0.12291277911812955,0.0,0.0,0.0,0.0,0.0,0.0,0.0,0.0,0.0,0.0,0.0,0.0,0.0,0.0,0.0,0.0,0.0,0.0,0.0,0.0,0.0,0.0,0.0,0.0,0.0,0.0,0.0,0.0,0.0,0.0,0.0,0.0,0.0,0.0,0.0,0.0,0.0,0.0,0.0,0.0,0.0,0.0,0.0,0.0,0.0,0.0,0.0,0.0,0.0,0.0,0.0,0.0,0.0,0.0,0.0,0.0,0.0,0.0,0.0,0.0,0.0,0.0,0.0,0.0,0.0,0.0,0.0,0.0,0.0,0.0,0.0,0.0,0.0,0.0,0.0,0.0,0.0,0.0,0.0,0.0,0.0,0.0,0.0,0.0,0.0,0.0,0.0,0.0,0.0,0.0,0.0,0.0,0.0,0.0,0.0,0.0,0.0,0.0,0.0,0.0,0.0,0.0,0.0,0.0,0.0,0.0,0.0,0.0,0.0,0.0,0.0,0.0,0.0,0.0,0.0,0.0,0.0,0.0,0.0,0.0,0.0,0.0,0.0,0.0,0.0,0.0,0.0,0.0,0.0,0.0,0.0,0.0,0.0,0.0,0.0,0.0,0.0,0.0,0.0,0.0,0.0,0.0,0.0,0.0,0.0,0.0,0.0,0.0,0.0,0.0,0.0,0.0,0.0,0.0,0.0,0.0,0.0,0.0,0.0,0.0,0.0,0.0,0.0,0.0,0.0,0.0,0.0,0.0,0.0,0.0,0.0,0.0,0.0,0.0,0.0,0.0,0.0,0.0,0.0,0.0,0.0,0.0,0.0,0.0,0.0,0.0,0.0,0.0,0.0,0.0,0.0,0.0,0.0,0.0,0.0,0.0,0.0,0.0,0.0,0.0,0.0,0.0,0.0,0.0,0.0,0.0,0.0,0.0,0.0,0.0,0.0,0.0,0.0,0.0,0.0,0.0,0.0,0.0,0.0,0.0,0.0,0.0,0.0,0.0,0.0,0.0,0.0,0.0,0.0,0.0,0.0,0.0,0.0,0.0,0.0,0.0,0.0,0.0,0.0,0.29941389840912047,0.29561203561464483,0.2912984253295255,0.28711514019493134,0.2830858249041016,0.27920560738258376,0.2754584647729554,0.2714346101489066,0.2677113049318282,0.26421928413070794,0.26083140655267356,0.2574260126762161,0.2535690263950926,0.24982612024892922,0.2462192334496149,0.24274573919611522,0.2393935605794769,0.235807198446796,0.23249420339245822,0.22939171755547624,0.2263845292077426,0.22336207389075233,0.2199433847762759,0.21662254142577336,0.21341697782588126,0.21032324660987853,0.20733058720202774,0.20413110551175423,0.20116967162713847,0.1983908145655313,0.19569288692894368,0.19297885740441395,0.189919029458311,0.18694634628875584,0.18407657595138538,0.181306726617066,0.17862712760680013,0.17577118013256096,0.17312565603257116,0.17063969425940115,0.16822208879979597,0.16578681955921265,0.16304956942524038,0.1603889080239701,0.1578201175348664,0.15534185965084074,0.15294651151162514,0.1504048204147059,0.14805152136861402,0.14583926653377347,0.14368518316402126,0.14151197947242566,0.13907483036501786,0.13670346637561961,0.13441332566980196,0.13220594174969466,0.1300774474332262,0.1278337479228681,0.12576484332230822,0.1238273967055657,0.12194563046555765,0.0,0.0,0.0,0.0,0.0,0.0,0.0,0.0,0.0,0.0,0.0,0.0,0.0,0.0,0.0,0.0,0.0,0.0,0.0,0.0,0.0,0.0,0.0,0.0,0.0,0.0,0.0,0.0,0.0,0.0,0.0,0.0,0.0,0.0,0.0,0.0,0.0,0.0,0.0,0.0,0.0,0.0,0.0,0.0,0.0,0.0,0.0,0.0,0.0,0.0,0.0,0.0,0.0,0.0,0.0,0.0,0.0,0.0,0.0,0.0,0.0,0.0,0.0,0.0,0.0,0.0,0.0,0.0,0.0,0.0,0.0,0.0,0.0,0.0,0.0,0.0,0.0,0.0,0.0,0.0,0.0,0.0,0.0,0.0,0.0,0.0,0.0,0.0,0.0,0.0,0.0,0.0,0.0,0.0,0.0,0.0,0.0,0.0,0.0,0.0,0.0,0.0,0.0,0.0,0.0,0.0,0.0,0.0,0.0,0.0,0.0,0.0,0.0,0.0,0.0,0.0,0.0,0.0,0.0,0.0,0.0,0.0,0.0,0.0,0.0,0.0,0.0,0.0,0.0,0.0,0.0,0.0,0.0,0.0,0.0,0.0,0.0,0.0,0.0,0.0,0.0,0.0,0.0,0.0,0.0,0.0,0.0,0.0,0.0,0.0,0.0,0.0,0.0,0.0,0.0,0.0,0.0,0.0,0.0,0.0,0.0,0.0,0.0,0.0,0.0,0.0,0.0,0.0,0.0,0.0,0.0,0.0,0.0,0.0,0.0,0.0,0.0,0.0,0.0,0.0,0.0,0.0,0.0,0.0,0.0,0.0,0.0,0.0,0.0,0.0,0.0,0.0,0.0,0.0,0.0,0.0,0.0,0.0,0.0,0.0,0.0,0.0,0.0,0.0,0.0,0.0,0.0,0.0,0.0,0.0,0.0,0.0,0.0,0.0,0.0,0.0,0.0,0.0,0.0,0.0,0.0,0.0,0.0,0.0,0.0,0.0,0.0,0.0,0.0,0.0,0.0,0.0,0.0,0.0,0.0,0.0,0.0,0.0,0.0
0.14266347138337374,0.14027942121939738,0.13795709988656402,0.13570344918177396,0.13351187010087273,0.13137217032658938,0.12908577435189106,0.12694496024563443,0.12491025362989451,0.12291277911812955,0.12089040017338192,0.11863935203559513,0.11645322246886564,0.11435082528349935,0.11233676026842841,0.11040863002017444,0.10839914642656381,0.10655593518696131,0.1048353414088976,0.10316513113291942,0.10147844425653504,0.09959106525400993,0.09774702795362074,0.09595743798249526,0.09422467043825733,0.09254825849289564,0.09079090120585993,0.08916887811931963,0.0876476369414712,0.08616693340363978,0.0846705258448099,0.08300420058104001,0.08137713982936948,0.07979881116827964,0.07827091627625164,0.07679279319672415,0.07524963229163187,0.07382484279439187,0.07248715246876877,0.0711830726254541,0.06986318128744305,0.06839847271622729,0.06696709930159835,0.06557788492859741,0.0642332093808394,0.06293356937816195,0.06158497362128415,0.06034239104739236,0.0591776982283888,0.05804312029108945,0.05689447535189834,0.055623532769480656,0.05437963090474555,0.05316944570846413,0.05199453816116079,0.05085538132563471,0.04967552882992595,0.04858537597982032,0.04756046979378838,0.046559517756325386,0.045544727155855676,0.0,0.0,0.0,0.0,0.0,0.0,0.0,0.0,0.0,0.0,0.0,0.0,0.0,0.0,0.0,0.0,0.0,0.0,0.0,0.0,0.0,0.0,0.0,0.0,0.0,0.0,0.0,0.0,0.0,0.0,0.0,0.0,0.0,0.0,0.0,0.0,0.0,0.0,0.0,0.0,0.0,0.0,0.0,0.0,0.0,0.0,0.0,0.0,0.0,0.0,0.0,0.0,0.0,0.0,0.0,0.0,0.0,0.0,0.0,0.0,0.0,0.0,0.0,0.0,0.0,0.0,0.0,0.0,0.0,0.0,0.0,0.0,0.0,0.0,0.0,0.0,0.0,0.0,0.0,0.0,0.0,0.0,0.0,0.0,0.0,0.0,0.0,0.0,0.0,0.0,0.0,0.0,0.0,0.0,0.0,0.0,0.0,0.0,0.0,0.0,0.0,0.0,0.0,0.0,0.0,0.0,0.0,0.0,0.0,0.0,0.0,0.0,0.0,0.0,0.0,0.0,0.0,0.0,0.0,0.0,0.0,0.0,0.0,0.0,0.0,0.0,0.0,0.0,0.0,0.0,0.0,0.0,0.0,0.0,0.0,0.0,0.0,0.0,0.0,0.0,0.0,0.0,0.0,0.0,0.0,0.0,0.0,0.0,0.0,0.0,0.0,0.0,0.0,0.0,0.0,0.0,0.0,0.0,0.0,0.0,0.0,0.0,0.0,0.0,0.0,0.0,0.0,0.0,0.0,0.0,0.0,0.0,0.0,0.0,0.0,0.0,0.0,0.0,0.0,0.0,0.0,0.0,0.0,0.0,0.0,0.0,0.0,0.0,0.0,0.0,0.0,0.0,0.0,0.0,0.0,0.0,0.0,0.0,0.0,0.0,0.0,0.0,0.0,0.0,0.0,0.0,0.0,0.0,0.0,0.0,0.0,0.0,0.0,0.0,0.0,0.0,0.0,0.0,0.0,0.0,0.0,0.0,0.0,0.0,0.0,0.0,0.0,0.0,0.0,0.0,0.0,0.0,0.0,0.0,0.0,0.0,0.0,0.0,0.0,0.14151197947242566,0.13907483036501786,0.13670346637561961,0.13441332566980196,0.13220594174969466,0.1300774474332262,0.1278337479228681,0.12576484332230822,0.1238273967055657,0.12194563046555765,0.12004827254883225,0.11792246432012328,0.1158502920953822,0.11384292666682182,0.11190039414945237,0.11001909766443833,0.10803464771228606,0.10619741422769807,0.10446982089220529,0.10278619486848956,0.10108545662971878,0.09918835732866736,0.09733943379176595,0.09555005350868051,0.09382158172254133,0.09215181559499924,0.09040239482052327,0.08878679211864643,0.08726991009213142,0.085791866903512,0.08429733579569665,0.08263390847904824,0.0810102754240552,0.07943641224202116,0.07791420836066806,0.07644285599639407,0.07490792309198567,0.07349118174957225,0.07216114991245465,0.07086441668242231,0.06955178227193877,0.06809516926498697,0.06667165383313226,0.06529010051410182,0.06395294124334008,0.06266070854748347,0.06132013414368801,0.06008512248770406,0.058927707286815664,0.0578003714029883,0.05665913744473105,0.05539658177231283,0.05416067361823042,0.052957973943242004,0.05179006533191532,0.05065756634197861,0.049485107947885444,0.048402024033066426,0.04738429716941566,0.04639107771484115,0.04538476929185832,0.0,0.0,0.0,0.0,0.0,0.0,0.0,0.0,0.0,0.0,0.0,0.0,0.0,0.0,0.0,0.0,0.0,0.0,0.0,0.0,0.0,0.0,0.0,0.0,0.0,0.0,0.0,0.0,0.0,0.0,0.0,0.0,0.0,0.0,0.0,0.0,0.0,0.0,0.0,0.0,0.0,0.0,0.0,0.0,0.0,0.0,0.0,0.0,0.0,0.0,0.0,0.0,0.0,0.0,0.0,0.0,0.0,0.0,0.0,0.0,0.0,0.0,0.0,0.0,0.0,0.0,0.0,0.0,0.0,0.0,0.0,0.0,0.0,0.0,0.0,0.0,0.0,0.0,0.0,0.0,0.0,0.0,0.0,0.0,0.0,0.0,0.0,0.0,0.0,0.0,0.0,0.0,0.0,0.0,0.0,0.0,0.0,0.0,0.0,0.0,0.0,0.0,0.0,0.0,0.0,0.0,0.0,0.0,0.0,0.0,0.0,0.0,0.0,0.0,0.0,0.0,0.0,0.0,0.0,0.0,0.0,0.0,0.0,0.0,0.0,0.0,0.0,0.0,0.0,0.0,0.0,0.0,0.0,0.0,0.0,0.0,0.0,0.0,0.0,0.0,0.0,0.0,0.0,0.0,0.0,0.0,0.0,0.0,0.0,0.0,0.0,0.0,0.0,0.0,0.0,0.0,0.0,0.0,0.0,0.0,0.0,0.0,0.0,0.0,0.0,0.0,0.0,0.0,0.0,0.0,0.0,0.0,0.0,0.0,0.0,0.0,0.0,0.0,0.0,0.0,0.0,0.0,0.0,0.0,0.0,0.0,0.0,0.0,0.0,0.0,0.0,0.0,0.0,0.0,0.0,0.0,0.0,0.0,0.0,0.0,0.0,0.0,0.0,0.0,0.0,0.0,0.0,0.0,0.0,0.0,0.0,0.0,0.0,0.0,0.0,0.0,0.0,0.0,0.0,0.0,0.0,0.0,0.0,0.0,0.0,0.0,0.0,0.0,0.0,0.0,0.0,0.0,0.0,0.0,0.0,0.0,0.0,0.0,0.0
0.055623532769480656,0.05437963090474555,0.05316944570846413,0.05199453816116079,0.05085538132563471,0.04967552882992595,0.04858537597982032,0.04756046979378838,0.046559517756325386,0.045544727155855676,0.04442798531910561,0.04333452913511627,0.04227032326129441,0.04123675461807149,0.04023407298607664,0.03920073640073033,0.03824338673080015,0.03733975913879809,0.036453653148168855,0.035552789475061214,0.03456708391316263,0.033601294891251805,0.032661974243436816,0.03175166452243106,0.03087150596404579,0.029973195297319236,0.02914308227419027,0.028360049654986206,0.027591043105483486,0.02680709179304551,0.02595227232546724,0.025112845116844494,0.02429566265878231,0.023504681001724446,0.022742677622045227,0.021973851671845946,0.021267790916259317,0.02060506733080799,0.019955527013527284,0.01929259865197527,0.018571511364270724,0.017860966637752725,0.01716666938030644,0.016492671347215812,0.015842519681905313,0.01519109253986933,0.01459392059038261,0.014034099511212901,0.01348529545374931,0.012924260522062447,0.012316687245353447,0.011716580880776723,0.01112880076730815,0.010557319007589366,0.010006001362219583,0.009458424960927652,0.008957761250526455,0.008489272689058346,0.008030074452884572,0.0075599655491523495,0.007053591715865856,0.0,0.0,0.0,0.0,0.0,0.0,0.0,0.0,0.0,0.0,0.0,0.0,0.0,0.0,0.0,0.0,0.0,0.0,0.0,0.0,0.0,0.0,0.0,0.0,0.0,0.0,0.0,0.0,0.0,0.0,0.0,0.0,0.0,0.0,0.0,0.0,0.0,0.0,0.0,0.0,0.0,0.0,0.0,0.0,0.0,0.0,0.0,0.0,0.0,0.0,0.0,0.0,0.0,0.0,0.0,0.0,0.0,0.0,0.0,0.0,0.0,0.0,0.0,0.0,0.0,0.0,0.0,0.0,0.0,0.0,0.0,0.0,0.0,0.0,0.0,0.0,0.0,0.0,0.0,0.0,0.0,0.0,0.0,0.0,0.0,0.0,0.0,0.0,0.0,0.0,0.0,0.0,0.0,0.0,0.0,0.0,0.0,0.0,0.0,0.0,0.0,0.0,0.0,0.0,0.0,0.0,0.0,0.0,0.0,0.0,0.0,0.0,0.0,0.0,0.0,0.0,0.0,0.0,0.0,0.0,0.0,0.0,0.0,0.0,0.0,0.0,0.0,0.0,0.0,0.0,0.0,0.0,0.0,0.0,0.0,0.0,0.0,0.0,0.0,0.0,0.0,0.0,0.0,0.0,0.0,0.0,0.0,0.0,0.0,0.0,0.0,0.0,0.0,0.0,0.0,0.0,0.0,0.0,0.0,0.0,0.0,0.0,0.0,0.0,0.0,0.0,0.0,0.0,0.0,0.0,0.0,0.0,0.0,0.0,0.0,0.0,0.0,0.0,0.0,0.0,0.0,0.0,0.0,0.0,0.0,0.0,0.0,0.0,0.0,0.0,0.0,0.0,0.0,0.0,0.0,0.0,0.0,0.0,0.0,0.0,0.0,0.0,0.0,0.0,0.0,0.0,0.0,0.0,0.0,0.0,0.0,0.0,0.0,0.0,0.0,0.0,0.0,0.0,0.0,0.0,0.0,0.0,0.0,0.0,0.0,0.0,0.0,0.0,0.0,0.0,0.0,0.0,0.0,0.0,0.0,0.0,0.0,0.0,0.0,0.05539658177231283,0.05416067361823042,0.052957973943242004,0.05179006533191532,0.05065756634197861,0.049485107947885444,0.048402024033066426,0.04738429716941566,0.04639107771484115,0.04538476929185832,0.044277657506432685,0.0431934581175968,0.04213740582394688,0.04111027466741876,0.04011197224173803,0.03908134539392713,0.03812491550204823,0.03722106572873316,0.036334368999994315,0.03543320936317754,0.03444822758621101,0.0334836088820374,0.03254544345350898,0.03163558682862325,0.03075444648461705,0.02985351675389258,0.02901837288048295,0.028228042691537423,0.027450045036935426,0.026656270862764248,0.025792106052443167,0.02494418030317047,0.024119945960039826,0.02332366383597325,0.022558095240911444,0.021787481176550213,0.021080497348473847,0.02041721465382701,0.019767087749161878,0.019103320198855033,0.018381392769631723,0.017669713945992975,0.016974206509582167,0.016299211208156653,0.015648545156798626,0.014997526689148446,0.01440137565087775,0.013843098537393777,0.01329619594540886,0.01273720901584666,0.012131834218554616,0.011533592218215462,0.01094722434529869,0.010376680320381918,0.009825872874894694,0.009278639799564411,0.008777994472272562,0.008309286691797188,0.007849728242287942,0.007379211478526977,0.006872595142113614,0.0,0.0,0.0,0.0,0.0,0.0,0.0,0.0,0.0,0.0,0.0,0.0,0.0,0.0,0.0,0.0,0.0,0.0,0.0,0.0,0.0,0.0,0.0,0.0,0.0,0.0,0.0,0.0,0.0,0.0,0.0,0.0,0.0,0.0,0.0,0.0,0.0,0.0,0.0,0.0,0.0,0.0,0.0,0.0,0.0,0.0,0.0,0.0,0.0,0.0,0.0,0.0,0.0,0.0,0.0,0.0,0.0,0.0,0.0,0.0,0.0,0.0,0.0,0.0,0.0,0.0,0.0,0.0,0.0,0.0,0.0,0.0,0.0,0.0,0.0,0.0,0.0,0.0,0.0,0.0,0.0,0.0,0.0,0.0,0.0,0.0,0.0,0.0,0.0,0.0,0.0,0.0,0.0,0.0,0.0,0.0,0.0,0.0,0.0,0.0,0.0,0.0,0.0,0.0,0.0,0.0,0.0,0.0,0.0,0.0,0.0,0.0,0.0,0.0,0.0,0.0,0.0,0.0,0.0,0.0,0.0,0.0,0.0,0.0,0.0,0.0,0.0,0.0,0.0,0.0,0.0,0.0,0.0,0.0,0.0,0.0,0.0,0.0,0.0,0.0,0.0,0.0,0.0,0.0,0.0,0.0,0.0,0.0,0.0,0.0,0.0,0.0,0.0,0.0,0.0,0.0,0.0,0.0,0.0,0.0,0.0,0.0,0.0,0.0,0.0,0.0,0.0,0.0,0.0,0.0,0.0,0.0,0.0,0.0,0.0,0.0,0.0,0.0,0.0,0.0,0.0,0.0,0.0,0.0,0.0,0.0,0.0,0.0,0.0,0.0,0.0,0.0,0.0,0.0,0.0,0.0,0.0,0.0,0.0,0.0,0.0,0.0,0.0,0.0,0.0,0.0,0.0,0.0,0.0,0.0,0.0,0.0,0.0,0.0,0.0,0.0,0.0,0.0,0.0,0.0,0.0,0.0,0.0,0.0,0.0,0.0,0.0,0.0,0.0,0.0,0.0,0.0,0.0,0.0,0.0,0.0,0.0,0.0,0.0
0.011716580880776723,0.01112880076730815,0.010557319007589366,0.010006001362219583,0.009458424960927652,0.008957761250526455,0.008489272689058346,0.008030074452884572,0.0075599655491523495,0.007053591715865856,0.006552132795466076,0.006059409117962143,0.005578830894388271,0.005113929736085116,0.004655069998479315,0.004234351197910582,0.003838954737258153,0.0034494460405593104,0.003049071298540767,0.002621160273759353,0.0021968351289902046,0.0017800696044262365,0.00137462136015916,0.0009842128609964184,0.0006051285358089718,0.00025946521739501763,-6.453444385367594e-05,-0.00038410758028156365,-0.0007139028513757195,-0.0010640435096493667,-0.0014127685807400273,-0.0017563435074317516,-0.0020907808191913085,-0.0024120185637478576,-0.002718539820767292,-0.0029963509203233614,-0.003255840310038296,-0.0035119972958270983,-0.003777486906183636,-0.004056933461746382,-0.004336766739189723,-0.004613726448570365,-0.004883866469113851,-0.005142955248619415,-0.005384935040313704,-0.005602570889667306,-0.005804877192050767,-0.006004745840677282,-0.00621305729467087,-0.006430028685930525,-0.006648899251514062,-0.00686678790023945,-0.007079706875133302,-0.007283159340722325,-0.007467656180215702,-0.007631048803338573,-0.00778081309461408,-0.007927779806199178,-0.008081300244271283,-0.008238619596942446,-0.008399227013420189,0.0,0.0,0.0,0.0,0.0,0.0,0.0,0.0,0.0,0.0,0.0,0.0,0.0,0.0,0.0,0.0,0.0,0.0,0.0,0.0,0.0,0.0,0.0,0.0,0.0,0.0,0.0,0.0,0.0,0.0,0.0,0.0,0.0,0.0,0.0,0.0,0.0,0.0,0.0,0.0,0.0,0.0,0.0,0.0,0.0,0.0,0.0,0.0,0.0,0.0,0.0,0.0,0.0,0.0,0.0,0.0,0.0,0.0,0.0,0.0,0.0,0.0,0.0,0.0,0.0,0.0,0.0,0.0,0.0,0.0,0.0,0.0,0.0,0.0,0.0,0.0,0.0,0.0,0.0,0.0,0.0,0.0,0.0,0.0,0.0,0.0,0.0,0.0,0.0,0.0,0.0,0.0,0.0,0.0,0.0,0.0,0.0,0.0,0.0,0.0,0.0,0.0,0.0,0.0,0.0,0.0,0.0,0.0,0.0,0.0,0.0,0.0,0.0,0.0,0.0,0.0,0.0,0.0,0.0,0.0,0.0,0.0,0.0,0.0,0.0,0.0,0.0,0.0,0.0,0.0,0.0,0.0,0.0,0.0,0.0,0.0,0.0,0.0,0.0,0.0,0.0,0.0,0.0,0.0,0.0,0.0,0.0,0.0,0.0,0.0,0.0,0.0,0.0,0.0,0.0,0.0,0.0,0.0,0.0,0.0,0.0,0.0,0.0,0.0,0.0,0.0,0.0,0.0,0.0,0.0,0.0,0.0,0.0,0.0,0.0,0.0,0.0,0.0,0.0,0.0,0.0,0.0,0.0,0.0,0.0,0.0,0.0,0.0,0.0,0.0,0.0,0.0,0.0,0.0,0.0,0.0,0.0,0.0,0.0,0.0,0.0,0.0,0.0,0.0,0.0,0.0,0.0,0.0,0.0,0.0,0.0,0.0,0.0,0.0,0.0,0.0,0.0,0.0,0.0,0.0,0.0,0.0,0.0,0.0,0.0,0.0,0.0,0.0,0.0,0.0,0.0,0.0,0.0,0.0,0.0,0.0,0.0,0.0,0.0,0.011533592218215462,0.01094722434529869,0.010376680320381918,0.009825872874894694,0.009278639799564411,0.008777994472272562,0.008309286691797188,0.007849728242287942,0.007379211478526977,0.006872595142113614,0.006370929156870634,0.005878072770108513,0.005397448378072588,0.004932550082159259,0.004473735009674981,0.004052841512979695,0.0036569434912692377,0.003266570161883724,0.0028650306399428237,0.0024359342653317885,0.0020104933877466407,0.0015929562330728247,0.0011873332541177404,0.0007975111977263879,0.00041994721845569363,7.645353754499943e-05,-0.00024495463758323813,-0.0005617751353455727,-0.0008888820029838153,-0.0012363402784448924,-0.0015826491730457411,-0.0019240127620328517,-0.002256299452702817,-0.0025752752036940184,-0.00287903355801651,-0.003153812853996602,-0.003410056569320583,-0.003662869003276063,-0.003925050899761756,-0.004202112880727276,-0.004479824079905563,-0.004754273922683199,-0.005020812908803099,-0.005274826595829493,-0.005512296324176347,-0.005725189184711946,-0.005922571176971639,-0.006117291881666046,-0.006320174477597411,-0.0065327387654143315,-0.006747327985700646,-0.006960616276501973,-0.007168221786434469,-0.0073655223593653285,-0.007543979251555176,-0.007701415403746701,-0.007845444801101815,-0.007986823119939314,-0.008134650801210732,-0.008286302668469508,-0.008440906081908619,0.0,0.0,0.0,0.0,0.0,0.0,0.0,0.0,0.0,0.0,0.0,0.0,0.0,0.0,0.0,0.0,0.0,0.0,0.0,0.0,0.0,0.0,0.0,0.0,0.0,0.0,0.0,0.0,0.0,0.0,0.0,0.0,0.0,0.0,0.0,0.0,0.0,0.0,0.0,0.0,0.0,0.0,0.0,0.0,0.0,0.0,0.0,0.0,0.0,0.0,0.0,0.0,0.0,0.0,0.0,0.0,0.0,0.0,0.0,0.0,0.0,0.0,0.0,0.0,0.0,0.0,0.0,0.0,0.0,0.0,0.0,0.0,0.0,0.0,0.0,0.0,0.0,0.0,0.0,0.0,0.0,0.0,0.0,0.0,0.0,0.0,0.0,0.0,0.0,0.0,0.0,0.0,0.0,0.0,0.0,0.0,0.0,0.0,0.0,0.0,0.0,0.0,0.0,0.0,0.0,0.0,0.0,0.0,0.0,0.0,0.0,0.0,0.0,0.0,0.0,0.0,0.0,0.0,0.0,0.0,0.0,0.0,0.0,0.0,0.0,0.0,0.0,0.0,0.0,0.0,0.0,0.0,0.0,0.0,0.0,0.0,0.0,0.0,0.0,0.0,0.0,0.0,0.0,0.0,0.0,0.0,0.0,0.0,0.0,0.0,0.0,0.0,0.0,0.0,0.0,0.0,0.0,0.0,0.0,0.0,0.0,0.0,0.0,0.0,0.0,0.0,0.0,0.0,0.0,0.0,0.0,0.0,0.0,0.0,0.0,0.0,0.0,0.0,0.0,0.0,0.0,0.0,0.0,0.0,0.0,0.0,0.0,0.0,0.0,0.0,0.0,0.0,0.0,0.0,0.0,0.0,0.0,0.0,0.0,0.0,0.0,0.0,0.0,0.0,0.0,0.0,0.0,0.0,0.0,0.0,0.0,0.0,0.0,0.0,0.0,0.0,0.0,0.0,0.0,0.0,0.0,0.0,0.0,0.0,0.0,0.0,0.0,0.0,0.0,0.0,0.0,0.0,0.0,0.0,0.0,0.0,0.0,0.0,0.0
-0.00686678790023945,-0.007079706875133302,-0.007283159340722325,-0.007467656180215702,-0.007631048803338573,-0.00778081309461408,-0.007927779806199178,-0.008081300244271283,-0.008238619596942446,-0.008399227013420189,-0.008561578491087404,-0.00872283653853273,-0.008879441147820242,-0.009020100482100663,-0.009147227981930458,-0.00926675274384452,-0.009386844189014275,-0.009514057159322577,-0.009641385270950601,-0.009771398361556423,-0.009901681740175111,-0.010028725058366904,-0.010148673170824912,-0.010248431880908532,-0.010334424854757399,-0.010412120033338143,-0.010488814186976595,-0.01057051281245776,-0.010648970138139502,-0.010731539738146768,-0.010817479748420893,-0.010905072363866024,-0.010992352454090608,-0.011066647896820377,-0.011138404741920571,-0.011212436993141122,-0.011293680047619076,-0.011384567810763269,-0.011471524996830344,-0.01156003691837761,-0.011644485832527586,-0.011718549249951247,-0.011776783167435929,-0.011803910205451714,-0.011812921237780214,-0.011810386516297434,-0.011804476854796983,-0.011802280384055782,-0.011795117327296198,-0.011796275564215718,-0.011804699459558672,-0.011816780279204792,-0.011827777600675634,-0.011820601103739978,-0.01180719169292041,-0.011789958174936454,-0.011772525055041314,-0.011758165509058803,-0.011735414282508115,-0.011718436009514941,-0.011706686762296546,0.0,0.0,0.0,0.0,0.0,0.0,0.0,0.0,0.0,0.0,0.0,0.0,0.0,0.0,0.0,0.0,0.0,0.0,0.0,0.0,0.0,0.0,0.0,0.0,0.0,0.0,0.0,0.0,0.0,0.0,0.0,0.0,0.0,0.0,0.0,0.0,0.0,0.0,0.0,0.0,0.0,0.0,0.0,0.0,0.0,0.0,0.0,0.0,0.0,0.0,0.0,0.0,0.0,0.0,0.0,0.0,0.0,0.0,0.0,0.0,0.0,0.0,0.0,0.0,0.0,0.0,0.0,0.0,0.0,0.0,0.0,0.0,0.0,0.0,0.0,0.0,0.0,0.0,0.0,0.0,0.0,0.0,0.0,0.0,0.0,0.0,0.0,0.0,0.0,0.0,0.0,0.0,0.0,0.0,0.0,0.0,0.0,0.0,0.0,0.0,0.0,0.0,0.0,0.0,0.0,0.0,0.0,0.0,0.0,0.0,0.0,0.0,0.0,0.0,0.0,0.0,0.0,0.0,0.0,0.0,0.0,0.0,0.0,0.0,0.0,0.0,0.0,0.0,0.0,0.0,0.0,0.0,0.0,0.0,0.0,0.0,0.0,0.0,0.0,0.0,0.0,0.0,0.0,0.0,0.0,0.0,0.0,0.0,0.0,0.0,0.0,0.0,0.0,0.0,0.0,0.0,0.0,0.0,0.0,0.0,0.0,0.0,0.0,0.0,0.0,0.0,0.0,0.0,0.0,0.0,0.0,0.0,0.0,0.0,0.0,0.0,0.0,0.0,0.0,0.0,0.0,0.0,0.0,0.0,0.0,0.0,0.0,0.0,0.0,0.0,0.0,0.0,0.0,0.0,0.0,0.0,0.0,0.0,0.0,0.0,0.0,0.0,0.0,0.0,0.0,0.0,0.0,0.0,0.0,0.0,0.0,0.0,0.0,0.0,0.0,0.0,0.0,0.0,0.0,0.0,0.0,0.0,0.0,0.0,0.0,0.0,0.0,0.0,0.0,0.0,0.0,0.0,0.0,0.0,0.0,0.0,0.0,0.0,0.0,-0.006960616276501973,-0.007168221786434469,-0.0073655223593653285,-0.007543979251555176,-0.007701415403746701,-0.007845444801101815,-0.007986823119939314,-0.008134650801210732,-0.008286302668469508,-0.008440906081908619,-0.008596939821440648,-0.00875206932496979,-0.008903779243056137,-0.009042286654871255,-0.009171367038363522,-0.009297617579218407,-0.00942883805366687,-0.009570046463423618,-0.009711742519079736,-0.009853789186910905,-0.009991368793805135,-0.010119876943669944,-0.010236313683791099,-0.010330384675031808,-0.010413260249167897,-0.0104953539169622,-0.010587706220841847,-0.010697152568999432,-0.010811794680441814,-0.010930728523530877,-0.011040113389972817,-0.011122060732152057,-0.011157991454207762,-0.011121282918152843,-0.011015015835287122,-0.01084524037388519,-0.010628239530588468,-0.01038741561692626,-0.010137241087739663,-0.009914808791598343,-0.009744242903019416,-0.009642432745007128,-0.009616839779644759,-0.009652767254257453,-0.009752187659605848,-0.009901183872829084,-0.01008228183699602,-0.010276621242913966,-0.010453650986186148,-0.01061235617434691,-0.010745890150199184,-0.010852836743466633,-0.010936402706183174,-0.010990008253860154,-0.011035789199585004,-0.011083276009022319,-0.011138963467209023,-0.011204772544820742,-0.011264664063476624,-0.011327110007945826,-0.011386247633546235,0.0,0.0,0.0,0.0,0.0,0.0,0.0,0.0,0.0,0.0,0.0,0.0,0.0,0.0,0.0,0.0,0.0,0.0,0.0,0.0,0.0,0.0,0.0,0.0,0.0,0.0,0.0,0.0,0.0,0.0,0.0,0.0,0.0,0.0,0.0,0.0,0.0,0.0,0.0,0.0,0.0,0.0,0.0,0.0,0.0,0.0,0.0,0.0,0.0,0.0,0.0,0.0,0.0,0.0,0.0,0.0,0.0,0.0,0.0,0.0,0.0,0.0,0.0,0.0,0.0,0.0,0.0,0.0,0.0,0.0,0.0,0.0,0.0,0.0,0.0,0.0,0.0,0.0,0.0,0.0,0.0,0.0,0.0,0.0,0.0,0.0,0.0,0.0,0.0,0.0,0.0,0.0,0.0,0.0,0.0,0.0,0.0,0.0,0.0,0.0,0.0,0.0,0.0,0.0,0.0,0.0,0.0,0.0,0.0,0.0,0.0,0.0,0.0,0.0,0.0,0.0,0.0,0.0,0.0,0.0,0.0,0.0,0.0,0.0,0.0,0.0,0.0,0.0,0.0,0.0,0.0,0.0,0.0,0.0,0.0,0.0,0.0,0.0,0.0,0.0,0.0,0.0,0.0,0.0,0.0,0.0,0.0,0.0,0.0,0.0,0.0,0.0,0.0,0.0,0.0,0.0,0.0,0.0,0.0,0.0,0.0,0.0,0.0,0.0,0.0,0.0,0.0,0.0,0.0,0.0,0.0,0.0,0.0,0.0,0.0,0.0,0.0,0.0,0.0,0.0,0.0,0.0,0.0,0.0,0.0,0.0,0.0,0.0,0.0,0.0,0.0,0.0,0.0,0.0,0.0,0.0,0.0,0.0,0.0,0.0,0.0,0.0,0.0,0.0,0.0,0.0,0.0,0.0,0.0,0.0,0.0,0.0,0.0,0.0,0.0,0.0,0.0,0.0,0.0,0.0,0.0,0.0,0.0,0.0,0.0,0.0,0.0,0.0,0.0,0.0,0.0,0.0,0.0,0.0,0.0,0.0,0.0,0.0,0.0
-0.011816780279204792,-0.011827777600675634,-0.011820601103739978,-0.01180719169292041,-0.011789958174936454,-0.011772525055041314,-0.011758165509058803,-0.011735414282508115,-0.011718436009514941,-0.011706686762296546,-0.011697792972417222,-0.011688553417441972,-0.011662902687917318,-0.01163472951885346,-0.01160604406564416,-0.011579214568515619,-0.011555966790203655,-0.011523304714858986,-0.011495566746885042,-0.01147157928017794,-0.011448609183797866,-0.011423380162965338,-0.011379866857009197,-0.01133292329347228,-0.011284359557990939,-0.011236266095039795,-0.011190379474945765,-0.011134322802760084,-0.01108400600149217,-0.011039199470346052,-0.010997932286648306,-0.010957378786926195,-0.010901781208107343,-0.010845789109306342,-0.010789949965282857,-0.010734839815713808,-0.01068097283497505,-0.010615774494661327,-0.010555702700273898,-0.010501223735932045,-0.010451400438666594,-0.010404566883023908,-0.010346330063488372,-0.010291964439248102,-0.01024142458585721,-0.010193952915360823,-0.010148418530233181,-0.010091331205518469,-0.010037847566116285,-0.00998763086211844,-0.009939524263839077,-0.009892270177442455,-0.00983318645474181,-0.009778027847255177,-0.009727397772681213,-0.009680785669356765,-0.009636897349193659,-0.009582601482436535,-0.009531612704600373,-0.009482486844762425,-0.009433075023793024,0.0,0.0,0.0,0.0,0.0,0.0,0.0,0.0,0.0,0.0,0.0,0.0,0.0,0.0,0.0,0.0,0.0,0.0,0.0,0.0,0.0,0.0,0.0,0.0,0.0,0.0,0.0,0.0,0.0,0.0,0.0,0.0,0.0,0.0,0.0,0.0,0.0,0.0,0.0,0.0,0.0,0.0,0.0,0.0,0.0,0.0,0.0,0.0,0.0,0.0,0.0,0.0,0.0,0.0,0.0,0.0,0.0,0.0,0.0,0.0,0.0,0.0,0.0,0.0,0.0,0.0,0.0,0.0,0.0,0.0,0.0,0.0,0.0,0.0,0.0,0.0,0.0,0.0,0.0,0.0,0.0,0.0,0.0,0.0,0.0,0.0,0.0,0.0,0.0,0.0,0.0,0.0,0.0,0.0,0.0,0.0,0.0,0.0,0.0,0.0,0.0,0.0,0.0,0.0,0.0,0.0,0.0,0.0,0.0,0.0,0.0,0.0,0.0,0.0,0.0,0.0,0.0,0.0,0.0,0.0,0.0,0.0,0.0,0.0,0.0,0.0,0.0,0.0,0.0,0.0,0.0,0.0,0.0,0.0,0.0,0.0,0.0,0.0,0.0,0.0,0.0,0.0,0.0,0.0,0.0,0.0,0.0,0.0,0.0,0.0,0.0,0.0,0.0,0.0,0.0,0.0,0.0,0.0,0.0,0.0,0.0,0.0,0.0,0.0,0.0,0.0,0.0,0.0,0.0,0.0,0.0,0.0,0.0,0.0,0.0,0.0,0.0,0.0,0.0,0.0,0.0,0.0,0.0,0.0,0.0,0.0,0.0,0.0,0.0,0.0,0.0,0.0,0.0,0.0,0.0,0.0,0.0,0.0,0.0,0.0,0.0,0.0,0.0,0.0,0.0,0.0,0.0,0.0,0.0,0.0,0.0,0.0,0.0,0.0,0.0,0.0,0.0,0.0,0.0,0.0,0.0,0.0,0.0,0.0,0.0,0.0,0.0,0.0,0.0,0.0,0.0,0.0,0.0,0.0,0.0,0.0,0.0,0.0,0.0,-0.010852836743466633,-0.010936402706183174,-0.010990008253860154,-0.011035789199585004,-0.011083276009022319,-0.011138963467209023,-0.011204772544820742,-0.011264664063476624,-0.011327110007945826,-0.011386247633546235,-0.011436272330201138,-0.011473142383458312,-0.011482309400624948,-0.011481237813382625,-0.011476093504668218,-0.011472913274177361,-0.011475700274119503,-0.011471733516741661,-0.011474279969423238,-0.01147982410708787,-0.011482965351310603,-0.011478258164780692,-0.01144841257125819,-0.011408842344112343,-0.011362987041049282,-0.011315297012828976,-0.011269891791692362,-0.011215894898110024,-0.011170074746418948,-0.011131631747797587,-0.011097052415574364,-0.011061525418604029,-0.011007273151448328,-0.010948186423095488,-0.010884869636345001,-0.01081898174052765,-0.010752825655930111,-0.010676216723256096,-0.01060643063181718,-0.010545105541269055,-0.010491702905835284,-0.010444125893256192,-0.01038796063743811,-0.010335218980368571,-0.010285147172818553,-0.010236952526537167,-0.01018992733312767,-0.010131911179507645,-0.010077306740101334,-0.01002662008230519,-0.009979598393078425,-0.009935728772999145,-0.009883144076114155,-0.009836846419382553,-0.009797260386906531,-0.009763445907654498,-0.009733390938412228,-0.009693221895759097,-0.009655161316118417,-0.00961700041771645,-0.009576225693750233,0.0,0.0,0.0,0.0,0.0,0.0,0.0,0.0,0.0,0.0,0.0,0.0,0.0,0.0,0.0,0.0,0.0,0.0,0.0,0.0,0.0,0.0,0.0,0.0,0.0,0.0,0.0,0.0,0.0,0.0,0.0,0.0,0.0,0.0,0.0,0.0,0.0,0.0,0.0,0.0,0.0,0.0,0.0,0.0,0.0,0.0,0.0,0.0,0.0,0.0,0.0,0.0,0.0,0.0,0.0,0.0,0.0,0.0,0.0,0.0,0.0,0.0,0.0,0.0,0.0,0.0,0.0,0.0,0.0,0.0,0.0,0.0,0.0,0.0,0.0,0.0,0.0,0.0,0.0,0.0,0.0,0.0,0.0,0.0,0.0,0.0,0.0,0.0,0.0,0.0,0.0,0.0,0.0,0.0,0.0,0.0,0.0,0.0,0.0,0.0,0.0,0.0,0.0,0.0,0.0,0.0,0.0,0.0,0.0,0.0,0.0,0.0,0.0,0.0,0.0,0.0,0.0,0.0,0.0,0.0,0.0,0.0,0.0,0.0,0.0,0.0,0.0,0.0,0.0,0.0,0.0,0.0,0.0,0.0,0.0,0.0,0.0,0.0,0.0,0.0,0.0,0.0,0.0,0.0,0.0,0.0,0.0,0.0,0.0,0.0,0.0,0.0,0.0,0.0,0.0,0.0,0.0,0.0,0.0,0.0,0.0,0.0,0.0,0.0,0.0,0.0,0.0,0.0,0.0,0.0,0.0,0.0,0.0,0.0,0.0,0.0,0.0,0.0,0.0,0.0,0.0,0.0,0.0,0.0,0.0,0.0,0.0,0.0,0.0,0.0,0.0,0.0,0.0,0.0,0.0,0.0,0.0,0.0,0.0,0.0,0.0,0.0,0.0,0.0,0.0,0.0,0.0,0.0,0.0,0.0,0.0,0.0,0.0,0.0,0.0,0.0,0.0,0.0,0.0,0.0,0.0,0.0,0.0,0.0,0.0,0.0,0.0,0.0,0.0,0.0,0.0,0.0,0.0,0.0,0.0,0.0,0.0,0.0,0.0
-0.009892270177442455,-0.00983318645474181,-0.009778027847255177,-0.009727397772681213,-0.009680785669356765,-0.009636897349193659,-0.009582601482436535,-0.009531612704600373,-0.009482486844762425,-0.009433075023793024,-0.00938152452094486,-0.00931602160706738,-0.00925200485365243,-0.009190652300102357,-0.009132196898694149,-0.009076124730326946,-0.009010926026560295,-0.008949840372634795,-0.008891193059727125,-0.008832307997207661,-0.00877072493970903,-0.00869515313294507,-0.008619866305263364,-0.008545852550822734,-0.008473470506539797,-0.008402649111928787,-0.00832361056543716,-0.008249219486494937,-0.008178042989792503,-0.008107388896321803,-0.008034573284148545,-0.007949114917987552,-0.007863764801679924,-0.007778981605683862,-0.007694824020199734,-0.00761127492433932,-0.007520116294174092,-0.007433699596184778,-0.007351084315381389,-0.007269991233401895,-0.007187976564530095,-0.0070957015609054595,-0.007004489081159958,-0.006914173632247665,-0.006824205234464311,-0.006734176908261558,-0.006636938117646954,-0.006543992861076492,-0.006454770836469544,-0.006367526566576229,-0.0062803772519930195,-0.006185501589042686,-0.006093261114355308,-0.006003138821423845,-0.005914022795346817,-0.0058249043218235215,-0.00572946545201102,-0.0056375562902891896,-0.005548175950581889,-0.005459391951199623,-0.005369431391654024,0.0,0.0,0.0,0.0,0.0,0.0,0.0,0.0,0.0,0.0,0.0,0.0,0.0,0.0,0.0,0.0,0.0,0.0,0.0,0.0,0.0,0.0,0.0,0.0,0.0,0.0,0.0,0.0,0.0,0.0,0.0,0.0,0.0,0.0,0.0,0.0,0.0,0.0,0.0,0.0,0.0,0.0,0.0,0.0,0.0,0.0,0.0,0.0,0.0,0.0,0.0,0.0,0.0,0.0,0.0,0.0,0.0,0.0,0.0,0.0,0.0,0.0,0.0,0.0,0.0,0.0,0.0,0.0,0.0,0.0,0.0,0.0,0.0,0.0,0.0,0.0,0.0,0.0,0.0,0.0,0.0,0.0,0.0,0.0,0.0,0.0,0.0,0.0,0.0,0.0,0.0,0.0,0.0,0.0,0.0,0.0,0.0,0.0,0.0,0.0,0.0,0.0,0.0,0.0,0.0,0.0,0.0,0.0,0.0,0.0,0.0,0.0,0.0,0.0,0.0,0.0,0.0,0.0,0.0,0.0,0.0,0.0,0.0,0.0,0.0,0.0,0.0,0.0,0.0,0.0,0.0,0.0,0.0,0.0,0.0,0.0,0.0,0.0,0.0,0.0,0.0,0.0,0.0,0.0,0.0,0.0,0.0,0.0,0.0,0.0,0.0,0.0,0.0,0.0,0.0,0.0,0.0,0.0,0.0,0.0,0.0,0.0,0.0,0.0,0.0,0.0,0.0,0.0,0.0,0.0,0.0,0.0,0.0,0.0,0.0,0.0,0.0,0.0,0.0,0.0,0.0,0.0,0.0,0.0,0.0,0.0,0.0,0.0,0.0,0.0,0.0,0.0,0.0,0.0,0.0,0.0,0.0,0.0,0.0,0.0,0.0,0.0,0.0,0.0,0.0,0.0,0.0,0.0,0.0,0.0,0.0,0.0,0.0,0.0,0.0,0.0,0.0,0.0,0.0,0.0,0.0,0.0,0.0,0.0,0.0,0.0,0.0,0.0,0.0,0.0,0.0,0.0,0.0,0.0,0.0,0.0,0.0,0.0,0.0,-0.009935728772999145,-0.009883144076114155,-0.009836846419382553,-0.009797260386906531,-0.009763445907654498,-0.009733390938412228,-0.009693221895759097,-0.009655161316118417,-0.00961700041771645,-0.009576225693750233,-0.009531053103825312,-0.009470146242257895,-0.009409494988755733,-0.00935109558607908,-0.009295883405545954,-0.009243730112725035,-0.009183057184229852,-0.00912666717903614,-0.009072257111494906,-0.009016491226527534,-0.008956407121624755,-0.008880406996813434,-0.00880302624618411,-0.008725728170444508,-0.008649513852078244,-0.008574937682315145,-0.008492588775881627,-0.008415545695552959,-0.008342153433737832,-0.00826922570574124,-0.008193468243005533,-0.008103828886891559,-0.008012811334601999,-0.007920835547459516,-0.00782823450532365,-0.007735528893044138,-0.007635191186720236,-0.007540303623825705,-0.007450461755936359,-0.007363688946096335,-0.007277589543082743,-0.00718267870281308,-0.007089940250348571,-0.00699877025944568,-0.006908184801693024,-0.006817433491658951,-0.006719182197993891,-0.006624926792097611,-0.006534215284708517,-0.006445531659586086,-0.0063572774402351605,-0.006261890522060488,-0.006169943162958507,-0.006080941473646995,-0.005993623200228467,-0.005906680679612734,-0.005813160488043681,-0.0057228155090722245,-0.00563445757576376,-0.005546110775691968,-0.005456083918990308,0.0,0.0,0.0,0.0,0.0,0.0,0.0,0.0,0.0,0.0,0.0,0.0,0.0,0.0,0.0,0.0,0.0,0.0,0.0,0.0,0.0,0.0,0.0,0.0,0.0,0.0,0.0,0.0,0.0,0.0,0.0,0.0,0.0,0.0,0.0,0.0,0.0,0.0,0.0,0.0,0.0,0.0,0.0,0.0,0.0,0.0,0.0,0.0,0.0,0.0,0.0,0.0,0.0,0.0,0.0,0.0,0.0,0.0,0.0,0.0,0.0,0.0,0.0,0.0,0.0,0.0,0.0,0.0,0.0,0.0,0.0,0.0,0.0,0.0,0.0,0.0,0.0,0.0,0.0,0.0,0.0,0.0,0.0,0.0,0.0,0.0,0.0,0.0,0.0,0.0,0.0,0.0,0.0,0.0,0.0,0.0,0.0,0.0,0.0,0.0,0.0,0.0,0.0,0.0,0.0,0.0,0.0,0.0,0.0,0.0,0.0,0.0,0.0,0.0,0.0,0.0,0.0,0.0,0.0,0.0,0.0,0.0,0.0,0.0,0.0,0.0,0.0,0.0,0.0,0.0,0.0,0.0,0.0,0.0,0.0,0.0,0.0,0.0,0.0,0.0,0.0,0.0,0.0,0.0,0.0,0.0,0.0,0.0,0.0,0.0,0.0,0.0,0.0,0.0,0.0,0.0,0.0,0.0,0.0,0.0,0.0,0.0,0.0,0.0,0.0,0.0,0.0,0.0,0.0,0.0,0.0,0.0,0.0,0.0,0.0,0.0,0.0,0.0,0.0,0.0,0.0,0.0,0.0,0.0,0.0,0.0,0.0,0.0,0.0,0.0,0.0,0.0,0.0,0.0,0.0,0.0,0.0,0.0,0.0,0.0,0.0,0.0,0.0,0.0,0.0,0.0,0.0,0.0,0.0,0.0,0.0,0.0,0.0,0.0,0.0,0.0,0.0,0.0,0.0,0.0,0.0,0.0,0.0,0.0,0.0,0.0,0.0,0.0,0.0,0.0,0.0,0.0,0.0,0.0,0.0,0.0,0.0,0.0,0.0
-0.006185501589042686,-0.006093261114355308,-0.006003138821423845,-0.005914022795346817,-0.0058249043218235215,-0.00572946545201102,-0.0056375562902891896,-0.005548175950581889,-0.005459391951199623,-0.005369431391654024,-0.0052724152961252,-0.005177663907103668,-0.005084724640734562,-0.004992478650223252,-0.004899920004334754,-0.004801942616227462,-0.004707368433557034,-0.00461519118741072,-0.004523478450162359,-0.004430408617015483,-0.0043306506030794355,-0.004232443546070143,-0.0041350815965761,-0.004037352812224585,-0.003938399775512646,-0.0038344896428133303,-0.003733979876368904,-0.003636553029204639,-0.00354105471907444,-0.0034463909340098084,-0.0033489740727325615,-0.0032558459425546067,-0.0031658647460007247,-0.0030770631318109967,-0.002987642581657749,-0.0028941628312054205,-0.0028027125964761417,-0.0027122178672665683,-0.0026212287111614255,-0.002528894229305689,-0.002433674955640545,-0.0023422367537412293,-0.002254486959876687,-0.002169398946786333,-0.002085676789340943,-0.002000935828005124,-0.0019184237602665613,-0.0018344451575983947,-0.0017440500856546767,-0.0016424593493761977,-0.001525802365310432,-0.0013965201570350736,-0.0012535314885306506,-0.0010974228314510324,-0.0009314650783761784,-0.0007620382715913676,-0.0006003501448035859,-0.0004530845801652735,-0.0003253318097977764,-0.00022047080737615905,-0.00014087992509362253,0.0,0.0,0.0,0.0,0.0,0.0,0.0,0.0,0.0,0.0,0.0,0.0,0.0,0.0,0.0,0.0,0.0,0.0,0.0,0.0,0.0,0.0,0.0,0.0,0.0,0.0,0.0,0.0,0.0,0.0,0.0,0.0,0.0,0.0,0.0,0.0,0.0,0.0,0.0,0.0,0.0,0.0,0.0,0.0,0.0,0.0,0.0,0.0,0.0,0.0,0.0,0.0,0.0,0.0,0.0,0.0,0.0,0.0,0.0,0.0,0.0,0.0,0.0,0.0,0.0,0.0,0.0,0.0,0.0,0.0,0.0,0.0,0.0,0.0,0.0,0.0,0.0,0.0,0.0,0.0,0.0,0.0,0.0,0.0,0.0,0.0,0.0,0.0,0.0,0.0,0.0,0.0,0.0,0.0,0.0,0.0,0.0,0.0,0.0,0.0,0.0,0.0,0.0,0.0,0.0,0.0,0.0,0.0,0.0,0.0,0.0,0.0,0.0,0.0,0.0,0.0,0.0,0.0,0.0,0.0,0.0,0.0,0.0,0.0,0.0,0.0,0.0,0.0,0.0,0.0,0.0,0.0,0.0,0.0,0.0,0.0,0.0,0.0,0.0,0.0,0.0,0.0,0.0,0.0,0.0,0.0,0.0,0.0,0.0,0.0,0.0,0.0,0.0,0.0,0.0,0.0,0.0,0.0,0.0,0.0,0.0,0.0,0.0,0.0,0.0,0.0,0.0,0.0,0.0,0.0,0.0,0.0,0.0,0.0,0.0,0.0,0.0,0.0,0.0,0.0,0.0,0.0,0.0,0.0,0.0,0.0,0.0,0.0,0.0,0.0,0.0,0.0,0.0,0.0,0.0,0.0,0.0,0.0,0.0,0.0,0.0,0.0,0.0,0.0,0.0,0.0,0.0,0.0,0.0,0.0,0.0,0.0,0.0,0.0,0.0,0.0,0.0,0.0,0.0,0.0,0.0,0.0,0.0,0.0,0.0,0.0,0.0,0.0,0.0,0.0,0.0,0.0,0.0,0.0,0.0,0.0,0.0,0.0,0.0,-0.006261890522060488,-0.006169943162958507,-0.006080941473646995,-0.005993623200228467,-0.005906680679612734,-0.005813160488043681,-0.0057228155090722245,-0.00563445757576376,-0.005546110775691968,-0.005456083918990308,-0.005358159586992676,-0.005262367600125876,-0.0051686197129990055,-0.005076093175213768,-0.004983903692850576,-0.00488654814980127,-0.0047927227542031445,-0.004700781354512897,-0.004607989429250713,-0.004511723466710846,-0.004406018309828441,-0.0042989432515689345,-0.0041898961382461075,-0.004078220328021703,-0.003964029793702105,-0.0038448356046090525,-0.003730364808679164,-0.0036212900743319205,-0.003516983950639921,-0.0034163361206933644,-0.003315258207307491,-0.0032199981118120227,-0.003128376870646203,-0.0030375335407307144,-0.0029451810420539908,-0.0028479805984254463,-0.0027526162745784045,-0.0026588432912218575,-0.002566064100708297,-0.0024740259634146175,-0.0023813870652430015,-0.00229434485462948,-0.002211798685468683,-0.0021314836917815418,-0.00205107475604205,-0.001967926626288116,-0.0018859417933675456,-0.0018032370903232184,-0.0017177242645056176,-0.0016281235486694824,-0.0015341264308771233,-0.0014406892434970307,-0.0013475187098578754,-0.0012536876338721371,-0.001158487716764743,-0.0010622953593140483,-0.0009687022208266284,-0.0008764568323507063,-0.0007836596843127455,-0.0006888518848600037,-0.0005927491581012048,0.0,0.0,0.0,0.0,0.0,0.0,0.0,0.0,0.0,0.0,0.0,0.0,0.0,0.0,0.0,0.0,0.0,0.0,0.0,0.0,0.0,0.0,0.0,0.0,0.0,0.0,0.0,0.0,0.0,0.0,0.0,0.0,0.0,0.0,0.0,0.0,0.0,0.0,0.0,0.0,0.0,0.0,0.0,0.0,0.0,0.0,0.0,0.0,0.0,0.0,0.0,0.0,0.0,0.0,0.0,0.0,0.0,0.0,0.0,0.0,0.0,0.0,0.0,0.0,0.0,0.0,0.0,0.0,0.0,0.0,0.0,0.0,0.0,0.0,0.0,0.0,0.0,0.0,0.0,0.0,0.0,0.0,0.0,0.0,0.0,0.0,0.0,0.0,0.0,0.0,0.0,0.0,0.0,0.0,0.0,0.0,0.0,0.0,0.0,0.0,0.0,0.0,0.0,0.0,0.0,0.0,0.0,0.0,0.0,0.0,0.0,0.0,0.0,0.0,0.0,0.0,0.0,0.0,0.0,0.0,0.0,0.0,0.0,0.0,0.0,0.0,0.0,0.0,0.0,0.0,0.0,0.0,0.0,0.0,0.0,0.0,0.0,0.0,0.0,0.0,0.0,0.0,0.0,0.0,0.0,0.0,0.0,0.0,0.0,0.0,0.0,0.0,0.0,0.0,0.0,0.0,0.0,0.0,0.0,0.0,0.0,0.0,0.0,0.0,0.0,0.0,0.0,0.0,0.0,0.0,0.0,0.0,0.0,0.0,0.0,0.0,0.0,0.0,0.0,0.0,0.0,0.0,0.0,0.0,0.0,0.0,0.0,0.0,0.0,0.0,0.0,0.0,0.0,0.0,0.0,0.0,0.0,0.0,0.0,0.0,0.0,0.0,0.0,0.0,0.0,0.0,0.0,0.0,0.0,0.0,0.0,0.0,0.0,0.0,0.0,0.0,0.0,0.0,0.0,0.0,0.0,0.0,0.0,0.0,0.0,0.0,0.0,0.0,0.0,0.0,0.0,0.0,0.0,0.0,0.0,0.0,0.0,0.0,0.0
-0.0013965201570350736,-0.0012535314885306506,-0.0010974228314510324,-0.0009314650783761784,-0.0007620382715913676,-0.0006003501448035859,-0.0004530845801652735,-0.0003253318097977764,-0.00022047080737615905,-0.00014087992509362253,-8.791769928085737e-05,-5.6057810568439526e-05,-3.7061286538405324e-05,-2.201150268312968e-05,-4.605336604838923e-06,1.9452845511245608e-05,5.571183328327725e-05,0.00010778152784842167,0.00017644780200989972,0.00025744760886843175,0.00034589947182392275,0.0004391552771487552,0.0005353667433301053,0.0006330632476205644,0.0007281889546318569,0.0008195429588478898,0.0009086947143495418,0.0009980748926968696,0.0010896786932312293,0.001181044323991273,0.0012723140189117204,0.0013644835767179578,0.0014585735634123633,0.001554921111192881,0.0016492200450336466,0.0017415412604008791,0.0018329963883500998,0.0019253739306996432,0.002020163529154533,0.002113743344056948,0.0022076079995681937,0.0023030278655911452,0.002401156121057479,0.002502210565813566,0.002600532489313974,0.0026969219013768947,0.0027920262406291216,0.002887307294838713,0.002984257602472599,0.0030786707374514575,0.003174025606016456,0.0032724350591669896,0.0033755586005902,0.0034835333486931295,0.003588789204120087,0.0036922080251354044,0.003792610867237431,0.0038895054801101527,0.00398280909491366,0.004066281321321414,0.004145395706609235,0.0,0.0,0.0,0.0,0.0,0.0,0.0,0.0,0.0,0.0,0.0,0.0,0.0,0.0,0.0,0.0,0.0,0.0,0.0,0.0,0.0,0.0,0.0,0.0,0.0,0.0,0.0,0.0,0.0,0.0,0.0,0.0,0.0,0.0,0.0,0.0,0.0,0.0,0.0,0.0,0.0,0.0,0.0,0.0,0.0,0.0,0.0,0.0,0.0,0.0,0.0,0.0,0.0,0.0,0.0,0.0,0.0,0.0,0.0,0.0,0.0,0.0,0.0,0.0,0.0,0.0,0.0,0.0,0.0,0.0,0.0,0.0,0.0,0.0,0.0,0.0,0.0,0.0,0.0,0.0,0.0,0.0,0.0,0.0,0.0,0.0,0.0,0.0,0.0,0.0,0.0,0.0,0.0,0.0,0.0,0.0,0.0,0.0,0.0,0.0,0.0,0.0,0.0,0.0,0.0,0.0,0.0,0.0,0.0,0.0,0.0,0.0,0.0,0.0,0.0,0.0,0.0,0.0,0.0,0.0,0.0,0.0,0.0,0.0,0.0,0.0,0.0,0.0,0.0,0.0,0.0,0.0,0.0,0.0,0.0,0.0,0.0,0.0,0.0,0.0,0.0,0.0,0.0,0.0,0.0,0.0,0.0,0.0,0.0,0.0,0.0,0.0,0.0,0.0,0.0,0.0,0.0,0.0,0.0,0.0,0.0,0.0,0.0,0.0,0.0,0.0,0.0,0.0,0.0,0.0,0.0,0.0,0.0,0.0,0.0,0.0,0.0,0.0,0.0,0.0,0.0,0.0,0.0,0.0,0.0,0.0,0.0,0.0,0.0,0.0,0.0,0.0,0.0,0.0,0.0,0.0,0.0,0.0,0.0,0.0,0.0,0.0,0.0,0.0,0.0,0.0,0.0,0.0,0.0,0.0,0.0,0.0,0.0,0.0,0.0,0.0,0.0,0.0,0.0,0.0,0.0,0.0,0.0,0.0,0.0,0.0,0.0,0.0,0.0,0.0,0.0,0.0,0.0,0.0,0.0,0.0,0.0,0.0,0.0,-0.0014406892434970307,-0.0013475187098578754,-0.0012536876338721371,-0.001158487716764743,-0.0010622953593140483,-0.0009687022208266284,-0.0008764568323507063,-0.0007836596843127455,-0.0006888518848600037,-0.0005927491581012048,-0.000498130041491405,-0.0004039558844407311,-0.0003087596316151157,-0.00021158603635940907,-0.0001142318132587757,-1.8994579660523403e-05,7.512874109055541e-05,0.0001696675488990602,0.00026567981214118563,0.00036082569777292207,0.0004536567614143706,0.0005453339136176417,0.0006375362204921243,0.0007314990157882628,0.0008245546996999402,0.0009162193578832566,0.0010078571507907417,0.00110118963925886,0.00119731821943534,0.001292734570058216,0.0013872743334201532,0.0014818542012229395,0.001577733956795822,0.0016756607029880905,0.0017715335532406226,0.0018658990664663434,0.001960019259364129,0.002055629956795622,0.0021540031865408408,0.002251045297887649,0.0023481378241218052,0.0024464158046422373,0.002547032796016377,0.002650325563787427,0.002750673115412337,0.0028492497624845532,0.0029469750075601453,0.0030455508200503824,0.0031466479410340135,0.0032460140430913805,0.0033472593129791534,0.003452451843019682,0.003563092120867272,0.0036790286342076725,0.0037922695692068215,0.0039031666049300358,0.0040102695914786485,0.004113004367878851,0.004211409327381332,0.004299634668499121,0.004383242511519254,0.0,0.0,0.0,0.0,0.0,0.0,0.0,0.0,0.0,0.0,0.0,0.0,0.0,0.0,0.0,0.0,0.0,0.0,0.0,0.0,0.0,0.0,0.0,0.0,0.0,0.0,0.0,0.0,0.0,0.0,0.0,0.0,0.0,0.0,0.0,0.0,0.0,0.0,0.0,0.0,0.0,0.0,0.0,0.0,0.0,0.0,0.0,0.0,0.0,0.0,0.0,0.0,0.0,0.0,0.0,0.0,0.0,0.0,0.0,0.0,0.0,0.0,0.0,0.0,0.0,0.0,0.0,0.0,0.0,0.0,0.0,0.0,0.0,0.0,0.0,0.0,0.0,0.0,0.0,0.0,0.0,0.0,0.0,0.0,0.0,0.0,0.0,0.0,0.0,0.0,0.0,0.0,0.0,0.0,0.0,0.0,0.0,0.0,0.0,0.0,0.0,0.0,0.0,0.0,0.0,0.0,0.0,0.0,0.0,0.0,0.0,0.0,0.0,0.0,0.0,0.0,0.0,0.0,0.0,0.0,0.0,0.0,0.0,0.0,0.0,0.0,0.0,0.0,0.0,0.0,0.0,0.0,0.0,0.0,0.0,0.0,0.0,0.0,0.0,0.0,0.0,0.0,0.0,0.0,0.0,0.0,0.0,0.0,0.0,0.0,0.0,0.0,0.0,0.0,0.0,0.0,0.0,0.0,0.0,0.0,0.0,0.0,0.0,0.0,0.0,0.0,0.0,0.0,0.0,0.0,0.0,0.0,0.0,0.0,0.0,0.0,0.0,0.0,0.0,0.0,0.0,0.0,0.0,0.0,0.0,0.0,0.0,0.0,0.0,0.0,0.0,0.0,0.0,0.0,0.0,0.0,0.0,0.0,0.0,0.0,0.0,0.0,0.0,0.0,0.0,0.0,0.0,0.0,0.0,0.0,0.0,0.0,0.0,0.0,0.0,0.0,0.0,0.0,0.0,0.0,0.0,0.0,0.0,0.0,0.0,0.0,0.0,0.0,0.0,0.0,0.0,0.0,0.0,0.0,0.0,0.0,0.0,0.0,0.0
0.0032724350591669896,0.0033755586005902,0.0034835333486931295,0.003588789204120087,0.0036922080251354044,0.003792610867237431,0.0038895054801101527,0.00398280909491366,0.004066281321321414,0.004145395706609235,0.004223407079326538,0.004303640281635432,0.004388094311524145,0.004469884072838781,0.004552264270939083,0.004634400373625988,0.004715221510140107,0.00479337952813463,0.004860385047046361,0.004921123539039112,0.004978182838160591,0.005034974066363189,0.005094319075730418,0.005149850969628096,0.005207434586676636,0.005267756340212088,0.005330729626674318,0.0053952586233262075,0.0054513707295322225,0.005504144028834874,0.00555483264979294,0.005605494870801795,0.005657965993945536,0.005704565233220376,0.005752790505877433,0.005804320719976677,0.005860276383060125,0.005920673364564865,0.005975322853854249,0.006030696308944607,0.0060875715288797065,0.006146905353531634,0.006209096199579009,0.006264083553949925,0.0063195006947565765,0.006376391529419651,0.006435664678628372,0.006497519034593152,0.006551270555835039,0.006605241434620933,0.006660741087661555,0.006718999952537276,0.006780455750288088,0.006833959511674093,0.006888268208604182,0.006944264393999961,0.00700264009623319,0.007063392465983024,0.007114703000401065,0.007166147150887183,0.007219038593760771,0.0,0.0,0.0,0.0,0.0,0.0,0.0,0.0,0.0,0.0,0.0,0.0,0.0,0.0,0.0,0.0,0.0,0.0,0.0,0.0,0.0,0.0,0.0,0.0,0.0,0.0,0.0,0.0,0.0,0.0,0.0,0.0,0.0,0.0,0.0,0.0,0.0,0.0,0.0,0.0,0.0,0.0,0.0,0.0,0.0,0.0,0.0,0.0,0.0,0.0,0.0,0.0,0.0,0.0,0.0,0.0,0.0,0.0,0.0,0.0,0.0,0.0,0.0,0.0,0.0,0.0,0.0,0.0,0.0,0.0,0.0,0.0,0.0,0.0,0.0,0.0,0.0,0.0,0.0,0.0,0.0,0.0,0.0,0.0,0.0,0.0,0.0,0.0,0.0,0.0,0.0,0.0,0.0,0.0,0.0,0.0,0.0,0.0,0.0,0.0,0.0,0.0,0.0,0.0,0.0,0.0,0.0,0.0,0.0,0.0,0.0,0.0,0.0,0.0,0.0,0.0,0.0,0.0,0.0,0.0,0.0,0.0,0.0,0.0,0.0,0.0,0.0,0.0,0.0,0.0,0.0,0.0,0.0,0.0,0.0,0.0,0.0,0.0,0.0,0.0,0.0,0.0,0.0,0.0,0.0,0.0,0.0,0.0,0.0,0.0,0.0,0.0,0.0,0.0,0.0,0.0,0.0,0.0,0.0,0.0,0.0,0.0,0.0,0.0,0.0,0.0,0.0,0.0,0.0,0.0,0.0,0.0,0.0,0.0,0.0,0.0,0.0,0.0,0.0,0.0,0.0,0.0,0.0,0.0,0.0,0.0,0.0,0.0,0.0,0.0,0.0,0.0,0.0,0.0,0.0,0.0,0.0,0.0,0.0,0.0,0.0,0.0,0.0,0.0,0.0,0.0,0.0,0.0,0.0,0.0,0.0,0.0,0.0,0.0,0.0,0.0,0.0,0.0,0.0,0.0,0.0,0.0,0.0,0.0,0.0,0.0,0.0,0.0,0.0,0.0,0.0,0.0,0.0,0.0,0.0,0.0,0.0,0.0,0.0,0.003452451843019682,0.003563092120867272,0.0036790286342076725,0.0037922695692068215,0.0039031666049300358,0.0040102695914786485,0.004113004367878851,0.004211409327381332,0.004299634668499121,0.004383242511519254,0.004466035634643644,0.00455179311470558,0.004642661808956932,0.00473143192050214,0.004820643791104829,0.004908678253986875,0.004993721619957921,0.005073914290532531,0.005140425245256026,0.0051986138041982535,0.0052517201052366515,0.005303975340222301,0.005358962620334935,0.005410638735813973,0.005465150934476682,0.005522888717213528,0.005583135276681887,0.00564401095013734,0.005694684553679553,0.0057399564145793275,0.005781047037942404,0.005820401906916041,0.005860594657703443,0.005894739878757564,0.005931477517038739,0.0059732958230197895,0.006021814729376069,0.006077178365269547,0.006128820326901567,0.006182910343679981,0.006239597447560168,0.006299193654985303,0.006361567130663869,0.006416176685863177,0.0064707835236457395,0.00652658666142783,0.006584793687378424,0.0066459558960581915,0.00669953399137985,0.0067542465450773515,0.006811405136365186,0.0068720410748672935,0.006936243363687427,0.006992247852019166,0.007048706287590332,0.00710625757226858,0.007165505342609137,0.007226530831316663,0.00727749846483003,0.007328609682884114,0.0073814856224937355,0.0,0.0,0.0,0.0,0.0,0.0,0.0,0.0,0.0,0.0,0.0,0.0,0.0,0.0,0.0,0.0,0.0,0.0,0.0,0.0,0.0,0.0,0.0,0.0,0.0,0.0,0.0,0.0,0.0,0.0,0.0,0.0,0.0,0.0,0.0,0.0,0.0,0.0,0.0,0.0,0.0,0.0,0.0,0.0,0.0,0.0,0.0,0.0,0.0,0.0,0.0,0.0,0.0,0.0,0.0,0.0,0.0,0.0,0.0,0.0,0.0,0.0,0.0,0.0,0.0,0.0,0.0,0.0,0.0,0.0,0.0,0.0,0.0,0.0,0.0,0.0,0.0,0.0,0.0,0.0,0.0,0.0,0.0,0.0,0.0,0.0,0.0,0.0,0.0,0.0,0.0,0.0,0.0,0.0,0.0,0.0,0.0,0.0,0.0,0.0,0.0,0.0,0.0,0.0,0.0,0.0,0.0,0.0,0.0,0.0,0.0,0.0,0.0,0.0,0.0,0.0,0.0,0.0,0.0,0.0,0.0,0.0,0.0,0.0,0.0,0.0,0.0,0.0,0.0,0.0,0.0,0.0,0.0,0.0,0.0,0.0,0.0,0.0,0.0,0.0,0.0,0.0,0.0,0.0,0.0,0.0,0.0,0.0,0.0,0.0,0.0,0.0,0.0,0.0,0.0,0.0,0.0,0.0,0.0,0.0,0.0,0.0,0.0,0.0,0.0,0.0,0.0,0.0,0.0,0.0,0.0,0.0,0.0,0.0,0.0,0.0,0.0,0.0,0.0,0.0,0.0,0.0,0.0,0.0,0.0,0.0,0.0,0.0,0.0,0.0,0.0,0.0,0.0,0.0,0.0,0.0,0.0,0.0,0.0,0.0,0.0,0.0,0.0,0.0,0.0,0.0,0.0,0.0,0.0,0.0,0.0,0.0,0.0,0.0,0.0,0.0,0.0,0.0,0.0,0.0,0.0,0.0,0.0,0.0,0.0,0.0,0.0,0.0,0.0,0.0,0.0,0.0,0.0,0.0,0.0,0.0,0.0,0.0,0.0
0.006718999952537276,0.006780455750288088,0.006833959511674093,0.006888268208604182,0.006944264393999961,0.00700264009623319,0.007063392465983024,0.007114703000401065,0.007166147150887183,0.007219038593760771,0.0072745691086422894,0.007333157731736899,0.007382775720275251,0.007433575396327021,0.007486714259768214,0.007543109053386482,0.007602922997490774,0.00765354819733712,0.007705712661587827,0.007760675331882241,0.007819371708837062,0.007881803408651541,0.007934630169867203,0.007988446229634459,0.008043898538938596,0.008101395276242646,0.008160683819812307,0.008208223926760974,0.008255609892385803,0.00830437748240654,0.008355889273605492,0.008410680813849093,0.008455175953458356,0.008501490779681766,0.008550843228793039,0.008603976539817192,0.008660677807885877,0.008706212715931791,0.008752757782227704,0.00880146961531535,0.008853313843381188,0.00890848678700509,0.008952607071464572,0.008998437394430174,0.009047237238581822,0.009099861596492126,0.009156295766124301,0.009201868392015958,0.009249471799202531,0.009300274669465486,0.00935502182476035,0.009413523943194998,0.009460438167973376,0.009508843141949198,0.009559707834742493,0.009613699146733691,0.009670752120265693,0.009715455634665504,0.009761881294249639,0.009811576907287158,0.00986558966474439,0.0,0.0,0.0,0.0,0.0,0.0,0.0,0.0,0.0,0.0,0.0,0.0,0.0,0.0,0.0,0.0,0.0,0.0,0.0,0.0,0.0,0.0,0.0,0.0,0.0,0.0,0.0,0.0,0.0,0.0,0.0,0.0,0.0,0.0,0.0,0.0,0.0,0.0,0.0,0.0,0.0,0.0,0.0,0.0,0.0,0.0,0.0,0.0,0.0,0.0,0.0,0.0,0.0,0.0,0.0,0.0,0.0,0.0,0.0,0.0,0.0,0.0,0.0,0.0,0.0,0.0,0.0,0.0,0.0,0.0,0.0,0.0,0.0,0.0,0.0,0.0,0.0,0.0,0.0,0.0,0.0,0.0,0.0,0.0,0.0,0.0,0.0,0.0,0.0,0.0,0.0,0.0,0.0,0.0,0.0,0.0,0.0,0.0,0.0,0.0,0.0,0.0,0.0,0.0,0.0,0.0,0.0,0.0,0.0,0.0,0.0,0.0,0.0,0.0,0.0,0.0,0.0,0.0,0.0,0.0,0.0,0.0,0.0,0.0,0.0,0.0,0.0,0.0,0.0,0.0,0.0,0.0,0.0,0.0,0.0,0.0,0.0,0.0,0.0,0.0,0.0,0.0,0.0,0.0,0.0,0.0,0.0,0.0,0.0,0.0,0.0,0.0,0.0,0.0,0.0,0.0,0.0,0.0,0.0,0.0,0.0,0.0,0.0,0.0,0.0,0.0,0.0,0.0,0.0,0.0,0.0,0.0,0.0,0.0,0.0,0.0,0.0,0.0,0.0,0.0,0.0,0.0,0.0,0.0,0.0,0.0,0.0,0.0,0.0,0.0,0.0,0.0,0.0,0.0,0.0,0.0,0.0,0.0,0.0,0.0,0.0,0.0,0.0,0.0,0.0,0.0,0.0,0.0,0.0,0.0,0.0,0.0,0.0,0.0,0.0,0.0,0.0,0.0,0.0,0.0,0.0,0.0,0.0,0.0,0.0,0.0,0.0,0.0,0.0,0.0,0.0,0.0,0.0,0.0,0.0,0.0,0.0,0.0,0.0,0.0068720410748672935,0.006936243363687427,0.006992247852019166,0.007048706287590332,0.00710625757226858,0.007165505342609137,0.007226530831316663,0.00727749846483003,0.007328609682884114,0.0073814856224937355,0.007437504842634595,0.007497097211875255,0.00754778040726756,0.007599695580294152,0.007653522176831144,0.007709627718393759,0.007767663592433845,0.007814363695915058,0.007860704557132083,0.007908097394708285,0.007957878822300526,0.008010663893791167,0.008053592437526815,0.008098363381182902,0.008146262418871146,0.00819808383713523,0.008253664195148488,0.008299036598129418,0.008345705188888332,0.008394682832784592,0.008446791246021348,0.008502128893902621,0.008546817004724327,0.008593035809858948,0.008642013758004002,0.00869456753912362,0.008750593592656754,0.00879561668411571,0.00884184186605844,0.00889031091485162,0.00894180211690339,0.008996350661688217,0.009039351797448046,0.009083979639423196,0.009131890263044768,0.009184444638951393,0.009242107730719679,0.009289988603105561,0.009341562390740092,0.009397938827654233,0.009459536406351029,0.009525606659386149,0.009579668430554786,0.009634558702683692,0.009690835242081525,0.009749005098276965,0.009809105588052622,0.009855693068203055,0.00990365338914676,0.009955061435997118,0.010011356100753464,0.0,0.0,0.0,0.0,0.0,0.0,0.0,0.0,0.0,0.0,0.0,0.0,0.0,0.0,0.0,0.0,0.0,0.0,0.0,0.0,0.0,0.0,0.0,0.0,0.0,0.0,0.0,0.0,0.0,0.0,0.0,0.0,0.0,0.0,0.0,0.0,0.0,0.0,0.0,0.0,0.0,0.0,0.0,0.0,0.0,0.0,0.0,0.0,0.0,0.0,0.0,0.0,0.0,0.0,0.0,0.0,0.0,0.0,0.0,0.0,0.0,0.0,0.0,0.0,0.0,0.0,0.0,0.0,0.0,0.0,0.0,0.0,0.0,0.0,0.0,0.0,0.0,0.0,0.0,0.0,0.0,0.0,0.0,0.0,0.0,0.0,0.0,0.0,0.0,0.0,0.0,0.0,0.0,0.0,0.0,0.0,0.0,0.0,0.0,0.0,0.0,0.0,0.0,0.0,0.0,0.0,0.0,0.0,0.0,0.0,0.0,0.0,0.0,0.0,0.0,0.0,0.0,0.0,0.0,0.0,0.0,0.0,0.0,0.0,0.0,0.0,0.0,0.0,0.0,0.0,0.0,0.0,0.0,0.0,0.0,0.0,0.0,0.0,0.0,0.0,0.0,0.0,0.0,0.0,0.0,0.0,0.0,0.0,0.0,0.0,0.0,0.0,0.0,0.0,0.0,0.0,0.0,0.0,0.0,0.0,0.0,0.0,0.0,0.0,0.0,0.0,0.0,0.0,0.0,0.0,0.0,0.0,0.0,0.0,0.0,0.0,0.0,0.0,0.0,0.0,0.0,0.0,0.0,0.0,0.0,0.0,0.0,0.0,0.0,0.0,0.0,0.0,0.0,0.0,0.0,0.0,0.0,0.0,0.0,0.0,0.0,0.0,0.0,0.0,0.0,0.0,0.0,0.0,0.0,0.0,0.0,0.0,0.0,0.0,0.0,0.0,0.0,0.0,0.0,0.0,0.0,0.0,0.0,0.0,0.0,0.0,0.0,0.0,0.0,0.0,0.0,0.0,0.0,0.0,0.0,0.0,0.0,0.0,0.0
