0.44115877537344655,0.43344190170316044,0.425613866454084,0.4168923547236299,0.4082307093861712,0.39965944430487765,0.39112039953143046,0.38247973927418716,0.3730408135319099,0.3634953891914388,0.35362484672555705,0.34324104041855535,0.332329283519534,0.32064630640065095,0.3094303376018311,0.29911794074409315,0.2900016737559587,0.2821788277648808,0.27510152148396505,0.2691684792009644,0.26381834626256373,0.2584039305949769,0.25243306220562733,0.24538194495074614,0.23820543614537013,0.2314994081055693,0.22604656994314143,0.22268729664637396,0.22180477167634707,0.2244027557285682,0.23033351020061424,0.2388729088813195,0.24885695483613113,0.2585116565804686,0.2670717414641674,0.27325559014633943,0.2760796322999067,0.2750266130258883,0.269694392355804,0.2612691583857021,0.2505576318116723,0.23849014316390144,0.22600518629940552,0.21359690395984665,0.2024326622168444,0.1927456071232389,0.18439537200093026,0.17698375957292273,0.1697543717794424,0.16267604242104156,0.15533361646972857,0.14747660769327525,0.13910052357676486,0.13023861524077868,0.12170387561822531,0.11388139189398705,0.10702463747895508,0.10121728758060695,0.09619738456238278,0.09208663271953005,0.08851459535016168,0.0,0.0,0.0,0.0,0.0,0.0,0.0,0.0,0.0,0.0,0.0,0.0,0.0,0.0,0.0,0.0,0.0,0.0,0.0,0.0,0.0,0.0,0.0,0.0,0.0,0.0,0.0,0.0,0.0,0.0,0.0,0.0,0.0,0.0,0.0,0.0,0.0,0.0,0.0,0.0,0.0,0.0,0.0,0.0,0.0,0.0,0.0,0.0,0.0,0.0,0.0,0.0,0.0,0.0,0.0,0.0,0.0,0.0,0.0,0.0,0.0,0.0,0.0,0.0,0.0,0.0,0.0,0.0,0.0,0.0,0.0,0.0,0.0,0.0,0.0,0.0,0.0,0.0,0.0,0.0,0.0,0.0,0.0,0.0,0.0,0.0,0.0,0.0,0.0,0.0,0.0,0.0,0.0,0.0,0.0,0.0,0.0,0.0,0.0,0.0,0.0,0.0,0.0,0.0,0.0,0.0,0.0,0.0,0.0,0.0,0.0,0.0,0.0,0.0,0.0,0.0,0.0,0.0,0.0,0.0,0.0,0.0,0.0,0.0,0.0,0.0,0.0,0.0,0.0,0.0,0.0,0.0,0.0,0.0,0.0,0.0,0.0,0.0,0.0,0.0,0.0,0.0,0.0,0.0,0.0,0.0,0.0,0.0,0.0,0.0,0.0,0.0,0.0,0.0,0.0,0.0,0.0,0.0,0.0,0.0,0.0,0.0,0.0,0.0,0.0,0.0,0.0,0.0,0.0,0.0,0.0,0.0,0.0,0.0,0.0,0.0,0.0,0.0,0.0,0.0,0.0,0.0,0.0,0.0,0.0,0.0,0.0,0.0,0.0,0.0,0.0,0.0,0.0,0.0,0.0,0.0,0.0,0.0,0.0,0.0,0.0,0.0,0.0,0.0,0.0,0.0,0.0,0.0,0.0,0.0,0.0,0.0,0.0,0.0,0.0,0.0,0.0,0.0,0.0,0.0,0.0,0.0,0.0,0.0,0.0,0.0,0.0,0.0,0.0,0.0,0.0,0.0,0.0,0.0,0.0,0.0,0.0,0.0,0.0,0.48519164273311294,0.4766541048117678,0.4680080437712681,0.4585158142959689,0.449270544777155,0.44033663397561007,0.4317195661311687,0.4233980313665187,0.41474625423510064,0.4067012913411557,0.399086603162995,0.3916212998415352,0.38405620490803444,0.37572431247815447,0.36758680999504034,0.35969967865872254,0.35207668093823286,0.34471437844955005,0.33709585550770066,0.3300459816079381,0.3234027321613533,0.3169033599380467,0.31031173028574977,0.30305149516960467,0.29594694481372474,0.2890461988163164,0.282365493400944,0.2759090821219495,0.2692556331597812,0.26310799920551137,0.2573189082077103,0.2516506252917268,0.24589056161659475,0.239559161001561,0.2333553587745518,0.2273263681907593,0.22149451163454015,0.21587204111124003,0.21012395315551213,0.20483520472713526,0.19987004695549737,0.19501201826386644,0.19006785856044534,0.18464218907591384,0.17931377401681958,0.17412542700119224,0.16910256479704322,0.16426367600965064,0.15935102210397487,0.15484516455335187,0.1506250184827354,0.14649809002260217,0.1422923459572796,0.1376883489669074,0.13315690215675913,0.12873530196489652,0.12444942279932644,0.12032101590490857,0.11615810907201653,0.11234886005062104,0.10878700510419556,0.0,0.0,0.0,0.0,0.0,0.0,0.0,0.0,0.0,0.0,0.0,0.0,0.0,0.0,0.0,0.0,0.0,0.0,0.0,0.0,0.0,0.0,0.0,0.0,0.0,0.0,0.0,0.0,0.0,0.0,0.0,0.0,0.0,0.0,0.0,0.0,0.0,0.0,0.0,0.0,0.0,0.0,0.0,0.0,0.0,0.0,0.0,0.0,0.0,0.0,0.0,0.0,0.0,0.0,0.0,0.0,0.0,0.0,0.0,0.0,0.0,0.0,0.0,0.0,0.0,0.0,0.0,0.0,0.0,0.0,0.0,0.0,0.0,0.0,0.0,0.0,0.0,0.0,0.0,0.0,0.0,0.0,0.0,0.0,0.0,0.0,0.0,0.0,0.0,0.0,0.0,0.0,0.0,0.0,0.0,0.0,0.0,0.0,0.0,0.0,0.0,0.0,0.0,0.0,0.0,0.0,0.0,0.0,0.0,0.0,0.0,0.0,0.0,0.0,0.0,0.0,0.0,0.0,0.0,0.0,0.0,0.0,0.0,0.0,0.0,0.0,0.0,0.0,0.0,0.0,0.0,0.0,0.0,0.0,0.0,0.0,0.0,0.0,0.0,0.0,0.0,0.0,0.0,0.0,0.0,0.0,0.0,0.0,0.0,0.0,0.0,0.0,0.0,0.0,0.0,0.0,0.0,0.0,0.0,0.0,0.0,0.0,0.0,0.0,0.0,0.0,0.0,0.0,0.0,0.0,0.0,0.0,0.0,0.0,0.0,0.0,0.0,0.0,0.0,0.0,0.0,0.0,0.0,0.0,0.0,0.0,0.0,0.0,0.0,0.0,0.0,0.0,0.0,0.0,0.0,0.0,0.0,0.0,0.0,0.0,0.0,0.0,0.0,0.0,0.0,0.0,0.0,0.0,0.0,0.0,0.0,0.0,0.0,0.0,0.0,0.0,0.0,0.0,0.0,0.0,0.0,0.0,0.0,0.0,0.0,0.0,0.0,0.0,0.0,0.0,0.0,0.0,0.0,0.0,0.0,0.0,0.0,0.0,0.0
0.13910052357676486,0.13023861524077868,0.12170387561822531,0.11388139189398705,0.10702463747895508,0.10121728758060695,0.09619738456238278,0.09208663271953005,0.08851459535016168,0.08507897769568751,0.08147755690529991,0.0774617912209013,0.07337585939881648,0.06933391419080279,0.06543942866670158,0.06173782622999285,0.058102636187336944,0.05460035915391706,0.05094371873092718,0.0468285850903292,0.042086358499799456,0.03674042516484015,0.03139582420156977,0.026692948089652443,0.023429454449942003,0.022434890769606062,0.024341976609604347,0.02970143053708948,0.03838917390980282,0.04975127409699325,0.06268171414740753,0.0756575676673741,0.0874191750700118,0.09655537898916661,0.10194482834272812,0.10292853752520902,0.09921530655170592,0.09153613401373993,0.08074582523629752,0.06796201696640436,0.05440687056119759,0.04111336699571144,0.029239346590086798,0.019354684237901248,0.011628282636175121,0.005885203597186164,0.001649451252025388,-0.0014502091976767606,-0.003954791590728144,-0.006311108235618647,-0.008794877796708171,-0.011537022818505912,-0.01439256790829042,-0.017312823869658923,-0.02030694257304194,-0.023474959190602506,-0.027010245823312858,-0.03106313163914659,-0.035832198049239136,-0.041392187823996854,-0.04761051180179981,0.0,0.0,0.0,0.0,0.0,0.0,0.0,0.0,0.0,0.0,0.0,0.0,0.0,0.0,0.0,0.0,0.0,0.0,0.0,0.0,0.0,0.0,0.0,0.0,0.0,0.0,0.0,0.0,0.0,0.0,0.0,0.0,0.0,0.0,0.0,0.0,0.0,0.0,0.0,0.0,0.0,0.0,0.0,0.0,0.0,0.0,0.0,0.0,0.0,0.0,0.0,0.0,0.0,0.0,0.0,0.0,0.0,0.0,0.0,0.0,0.0,0.0,0.0,0.0,0.0,0.0,0.0,0.0,0.0,0.0,0.0,0.0,0.0,0.0,0.0,0.0,0.0,0.0,0.0,0.0,0.0,0.0,0.0,0.0,0.0,0.0,0.0,0.0,0.0,0.0,0.0,0.0,0.0,0.0,0.0,0.0,0.0,0.0,0.0,0.0,0.0,0.0,0.0,0.0,0.0,0.0,0.0,0.0,0.0,0.0,0.0,0.0,0.0,0.0,0.0,0.0,0.0,0.0,0.0,0.0,0.0,0.0,0.0,0.0,0.0,0.0,0.0,0.0,0.0,0.0,0.0,0.0,0.0,0.0,0.0,0.0,0.0,0.0,0.0,0.0,0.0,0.0,0.0,0.0,0.0,0.0,0.0,0.0,0.0,0.0,0.0,0.0,0.0,0.0,0.0,0.0,0.0,0.0,0.0,0.0,0.0,0.0,0.0,0.0,0.0,0.0,0.0,0.0,0.0,0.0,0.0,0.0,0.0,0.0,0.0,0.0,0.0,0.0,0.0,0.0,0.0,0.0,0.0,0.0,0.0,0.0,0.0,0.0,0.0,0.0,0.0,0.0,0.0,0.0,0.0,0.0,0.0,0.0,0.0,0.0,0.0,0.0,0.0,0.0,0.0,0.0,0.0,0.0,0.0,0.0,0.0,0.0,0.0,0.0,0.0,0.0,0.0,0.0,0.0,0.0,0.0,0.0,0.0,0.0,0.0,0.0,0.0,0.0,0.0,0.0,0.0,0.0,0.0,0.0,0.0,0.0,0.0,0.0,0.0,0.1422923459572796,0.1376883489669074,0.13315690215675913,0.12873530196489652,0.12444942279932644,0.12032101590490857,0.11615810907201653,0.11234886005062104,0.10878700510419556,0.10530417695583352,0.10174999594526717,0.09787262672546007,0.0940484046805155,0.09030892010849377,0.08667845826751258,0.08317897598562575,0.07967232359895614,0.07646461004560871,0.07346283565355444,0.07052169701300642,0.06751282929007717,0.06424583043481102,0.06101833537768311,0.05785985247001946,0.054795106303277524,0.051846682594528584,0.048921394572056964,0.046252648721820236,0.04375707125883069,0.041307573306852995,0.03879338844673071,0.036075436618116775,0.033383293258962984,0.030745677049324537,0.028189516414615076,0.02574009429893285,0.023344095944679483,0.021173853950434942,0.0191551775952404,0.017176408815504855,0.015140221619056963,0.012947406696388929,0.010765788512818598,0.008619975942172758,0.006536133497710101,0.00454034893918108,0.0026118006850817783,0.0008727738251959835,-0.0007401734762196098,-0.0023219807709381874,-0.003955196636008472,-0.005703926780664299,-0.0074509573203928965,-0.009174698254107315,-0.010849945703159423,-0.01245074221119802,-0.013972344843251973,-0.015334878250602096,-0.01659250723482371,-0.017825455504686158,-0.01910327949250528,0.0,0.0,0.0,0.0,0.0,0.0,0.0,0.0,0.0,0.0,0.0,0.0,0.0,0.0,0.0,0.0,0.0,0.0,0.0,0.0,0.0,0.0,0.0,0.0,0.0,0.0,0.0,0.0,0.0,0.0,0.0,0.0,0.0,0.0,0.0,0.0,0.0,0.0,0.0,0.0,0.0,0.0,0.0,0.0,0.0,0.0,0.0,0.0,0.0,0.0,0.0,0.0,0.0,0.0,0.0,0.0,0.0,0.0,0.0,0.0,0.0,0.0,0.0,0.0,0.0,0.0,0.0,0.0,0.0,0.0,0.0,0.0,0.0,0.0,0.0,0.0,0.0,0.0,0.0,0.0,0.0,0.0,0.0,0.0,0.0,0.0,0.0,0.0,0.0,0.0,0.0,0.0,0.0,0.0,0.0,0.0,0.0,0.0,0.0,0.0,0.0,0.0,0.0,0.0,0.0,0.0,0.0,0.0,0.0,0.0,0.0,0.0,0.0,0.0,0.0,0.0,0.0,0.0,0.0,0.0,0.0,0.0,0.0,0.0,0.0,0.0,0.0,0.0,0.0,0.0,0.0,0.0,0.0,0.0,0.0,0.0,0.0,0.0,0.0,0.0,0.0,0.0,0.0,0.0,0.0,0.0,0.0,0.0,0.0,0.0,0.0,0.0,0.0,0.0,0.0,0.0,0.0,0.0,0.0,0.0,0.0,0.0,0.0,0.0,0.0,0.0,0.0,0.0,0.0,0.0,0.0,0.0,0.0,0.0,0.0,0.0,0.0,0.0,0.0,0.0,0.0,0.0,0.0,0.0,0.0,0.0,0.0,0.0,0.0,0.0,0.0,0.0,0.0,0.0,0.0,0.0,0.0,0.0,0.0,0.0,0.0,0.0,0.0,0.0,0.0,0.0,0.0,0.0,0.0,0.0,0.0,0.0,0.0,0.0,0.0,0.0,0.0,0.0,0.0,0.0,0.0,0.0,0.0,0.0,0.0,0.0,0.0,0.0,0.0,0.0,0.0,0.0,0.0,0.0,0.0,0.0,0.0,0.0,0.0
-0.011537022818505912,-0.01439256790829042,-0.017312823869658923,-0.02030694257304194,-0.023474959190602506,-0.027010245823312858,-0.03106313163914659,-0.035832198049239136,-0.041392187823996854,-0.04761051180179981,-0.05412211871639033,-0.0603320783038538,-0.06564652896665077,-0.06955370154945471,-0.07174606441299711,-0.07219233172818043,-0.07114827187160525,-0.0691591607771057,-0.06688093835236258,-0.06489289512709076,-0.06350117314941096,-0.06266277490666207,-0.06197433831830673,-0.060723885221057955,-0.05803972584118443,-0.053061986387538604,-0.04523971209516548,-0.03446373853632084,-0.021154301567482277,-0.006236425396026337,0.008952306514935513,0.022995227338386034,0.034466114137297235,0.04221880520129448,0.045566875049131754,0.04427757982695543,0.0389153582377965,0.03037296538916614,0.019833745563346553,0.008576774604232828,-0.0022699021359331604,-0.011729162390751398,-0.019266513609811232,-0.024753501827695746,-0.028413325840666095,-0.03070296731462465,-0.032183070971347656,-0.03337700642875078,-0.034663208674915166,-0.03621983910423058,-0.03801293378651054,-0.03989570968881104,-0.04164497599212902,-0.04305989956314567,-0.04402635236779506,-0.044520553079832915,-0.04467868798740397,-0.044664612106559906,-0.0446400427523352,-0.04471260865439055,-0.04487264552570425,0.0,0.0,0.0,0.0,0.0,0.0,0.0,0.0,0.0,0.0,0.0,0.0,0.0,0.0,0.0,0.0,0.0,0.0,0.0,0.0,0.0,0.0,0.0,0.0,0.0,0.0,0.0,0.0,0.0,0.0,0.0,0.0,0.0,0.0,0.0,0.0,0.0,0.0,0.0,0.0,0.0,0.0,0.0,0.0,0.0,0.0,0.0,0.0,0.0,0.0,0.0,0.0,0.0,0.0,0.0,0.0,0.0,0.0,0.0,0.0,0.0,0.0,0.0,0.0,0.0,0.0,0.0,0.0,0.0,0.0,0.0,0.0,0.0,0.0,0.0,0.0,0.0,0.0,0.0,0.0,0.0,0.0,0.0,0.0,0.0,0.0,0.0,0.0,0.0,0.0,0.0,0.0,0.0,0.0,0.0,0.0,0.0,0.0,0.0,0.0,0.0,0.0,0.0,0.0,0.0,0.0,0.0,0.0,0.0,0.0,0.0,0.0,0.0,0.0,0.0,0.0,0.0,0.0,0.0,0.0,0.0,0.0,0.0,0.0,0.0,0.0,0.0,0.0,0.0,0.0,0.0,0.0,0.0,0.0,0.0,0.0,0.0,0.0,0.0,0.0,0.0,0.0,0.0,0.0,0.0,0.0,0.0,0.0,0.0,0.0,0.0,0.0,0.0,0.0,0.0,0.0,0.0,0.0,0.0,0.0,0.0,0.0,0.0,0.0,0.0,0.0,0.0,0.0,0.0,0.0,0.0,0.0,0.0,0.0,0.0,0.0,0.0,0.0,0.0,0.0,0.0,0.0,0.0,0.0,0.0,0.0,0.0,0.0,0.0,0.0,0.0,0.0,0.0,0.0,0.0,0.0,0.0,0.0,0.0,0.0,0.0,0.0,0.0,0.0,0.0,0.0,0.0,0.0,0.0,0.0,0.0,0.0,0.0,0.0,0.0,0.0,0.0,0.0,0.0,0.0,0.0,0.0,0.0,0.0,0.0,0.0,0.0,0.0,0.0,0.0,0.0,0.0,0.0,0.0,0.0,0.0,0.0,0.0,0.0,-0.005703926780664299,-0.0074509573203928965,-0.009174698254107315,-0.010849945703159423,-0.01245074221119802,-0.013972344843251973,-0.015334878250602096,-0.01659250723482371,-0.017825455504686158,-0.01910327949250528,-0.020461453638980862,-0.02182566909746892,-0.023178095738364306,-0.024496086627382195,-0.02575581677381254,-0.026933831242395474,-0.027986449468480484,-0.028959678411739322,-0.02991969613932497,-0.030922430975767943,-0.03197693834628888,-0.03304093582773466,-0.034096372756981574,-0.035120181996761736,-0.03608904517772335,-0.03696494086459801,-0.037735505670684455,-0.03844211672549564,-0.039141863679120016,-0.039881976470664146,-0.04065279177045253,-0.041439124373686576,-0.04222205686912451,-0.042976001412737615,-0.043674907763604956,-0.044266618250700225,-0.044760930645155926,-0.04519340977815185,-0.04561363580486715,-0.046064171098022924,-0.04652629172215458,-0.04701279827629115,-0.047510930824403504,-0.04799914288771723,-0.04845343443244089,-0.04881320935011946,-0.04910387357927652,-0.04935171110457627,-0.04959364442043345,-0.04986122846662201,-0.05012322590166859,-0.05040920475169314,-0.05070842192092908,-0.051001981457363385,-0.05126902250080313,-0.05144637273456353,-0.05157430764830181,-0.05167415922294777,-0.051774145230674945,-0.05189733544403396,-0.05200310445834107,0.0,0.0,0.0,0.0,0.0,0.0,0.0,0.0,0.0,0.0,0.0,0.0,0.0,0.0,0.0,0.0,0.0,0.0,0.0,0.0,0.0,0.0,0.0,0.0,0.0,0.0,0.0,0.0,0.0,0.0,0.0,0.0,0.0,0.0,0.0,0.0,0.0,0.0,0.0,0.0,0.0,0.0,0.0,0.0,0.0,0.0,0.0,0.0,0.0,0.0,0.0,0.0,0.0,0.0,0.0,0.0,0.0,0.0,0.0,0.0,0.0,0.0,0.0,0.0,0.0,0.0,0.0,0.0,0.0,0.0,0.0,0.0,0.0,0.0,0.0,0.0,0.0,0.0,0.0,0.0,0.0,0.0,0.0,0.0,0.0,0.0,0.0,0.0,0.0,0.0,0.0,0.0,0.0,0.0,0.0,0.0,0.0,0.0,0.0,0.0,0.0,0.0,0.0,0.0,0.0,0.0,0.0,0.0,0.0,0.0,0.0,0.0,0.0,0.0,0.0,0.0,0.0,0.0,0.0,0.0,0.0,0.0,0.0,0.0,0.0,0.0,0.0,0.0,0.0,0.0,0.0,0.0,0.0,0.0,0.0,0.0,0.0,0.0,0.0,0.0,0.0,0.0,0.0,0.0,0.0,0.0,0.0,0.0,0.0,0.0,0.0,0.0,0.0,0.0,0.0,0.0,0.0,0.0,0.0,0.0,0.0,0.0,0.0,0.0,0.0,0.0,0.0,0.0,0.0,0.0,0.0,0.0,0.0,0.0,0.0,0.0,0.0,0.0,0.0,0.0,0.0,0.0,0.0,0.0,0.0,0.0,0.0,0.0,0.0,0.0,0.0,0.0,0.0,0.0,0.0,0.0,0.0,0.0,0.0,0.0,0.0,0.0,0.0,0.0,0.0,0.0,0.0,0.0,0.0,0.0,0.0,0.0,0.0,0.0,0.0,0.0,0.0,0.0,0.0,0.0,0.0,0.0,0.0,0.0,0.0,0.0,0.0,0.0,0.0,0.0,0.0,0.0,0.0,0.0,0.0,0.0,0.0,0.0,0.0
0.05406532692306398,0.053452836961586925,0.049042291874206424,0.041672788280538026,0.032452387016972596,0.022571928386084687,0.013075392032393463,0.004841554271266229,-0.0016177546206505458,-0.006150562365256266,-0.008921470150894608,-0.010316791606984342,-0.010840721295127346,-0.010956233244685637,-0.01101823864922223,-0.011231896810015296,-0.011636033862167676,-0.012204242465920464,-0.012805245334922014,-0.013291093530938769,-0.013542323469135982,-0.013458673421422854,-0.01308166451614779,-0.012443767124064314,-0.01160074689055698,-0.01062302838208681,-0.009567109437408567,-0.008588114923793294,-0.007824726603750342,-0.00745612712798893,-0.007703733295037642,-0.00878759694726625,-0.010969456319557572,-0.01437050603186999,-0.018945332103979123,-0.02442778719500385,-0.030246530018404886,-0.03573615931655546,-0.0400021662634466,-0.04209446219130203,-0.04115184109497007,-0.03646332563508628,-0.027908513662020528,-0.015767398730910057,-0.0008206475740953822,0.015721174014567345,0.03236671232884767,0.04756829202405798,0.059937558569076656,0.06845223279197715,0.07259418912410474,0.07229705697087929,0.06823142974225166,0.06136989343513958,0.0528927912703606,0.043979814777213036,0.035548335953043485,0.028337583757291968,0.022654524149018314,0.018443047317271498,0.01536544043032132,0.0,0.0,0.0,0.0,0.0,0.0,0.0,0.0,0.0,0.0,0.0,0.0,0.0,0.0,0.0,0.0,0.0,0.0,0.0,0.0,0.0,0.0,0.0,0.0,0.0,0.0,0.0,0.0,0.0,0.0,0.0,0.0,0.0,0.0,0.0,0.0,0.0,0.0,0.0,0.0,0.0,0.0,0.0,0.0,0.0,0.0,0.0,0.0,0.0,0.0,0.0,0.0,0.0,0.0,0.0,0.0,0.0,0.0,0.0,0.0,0.0,0.0,0.0,0.0,0.0,0.0,0.0,0.0,0.0,0.0,0.0,0.0,0.0,0.0,0.0,0.0,0.0,0.0,0.0,0.0,0.0,0.0,0.0,0.0,0.0,0.0,0.0,0.0,0.0,0.0,0.0,0.0,0.0,0.0,0.0,0.0,0.0,0.0,0.0,0.0,0.0,0.0,0.0,0.0,0.0,0.0,0.0,0.0,0.0,0.0,0.0,0.0,0.0,0.0,0.0,0.0,0.0,0.0,0.0,0.0,0.0,0.0,0.0,0.0,0.0,0.0,0.0,0.0,0.0,0.0,0.0,0.0,0.0,0.0,0.0,0.0,0.0,0.0,0.0,0.0,0.0,0.0,0.0,0.0,0.0,0.0,0.0,0.0,0.0,0.0,0.0,0.0,0.0,0.0,0.0,0.0,0.0,0.0,0.0,0.0,0.0,0.0,0.0,0.0,0.0,0.0,0.0,0.0,0.0,0.0,0.0,0.0,0.0,0.0,0.0,0.0,0.0,0.0,0.0,0.0,0.0,0.0,0.0,0.0,0.0,0.0,0.0,0.0,0.0,0.0,0.0,0.0,0.0,0.0,0.0,0.0,0.0,0.0,0.0,0.0,0.0,0.0,0.0,0.0,0.0,0.0,0.0,0.0,0.0,0.0,0.0,0.0,0.0,0.0,0.0,0.0,0.0,0.0,0.0,0.0,0.0,0.0,0.0,0.0,0.0,0.0,0.0,0.0,0.0,0.0,0.0,0.0,0.0,0.0,0.0,0.0,0.0,0.0,0.0,-0.05093532682495908,-0.05068776770652896,-0.05041462331693075,-0.05012719665612223,-0.049839229037573915,-0.049562457643985265,-0.04925275547329465,-0.048972174173669066,-0.04871285024459763,-0.04845807763956396,-0.04818958846301144,-0.04784585492935318,-0.04748785164471103,-0.047121826777667915,-0.04675517140290204,-0.04639461124024536,-0.04599747140846679,-0.04562754574612553,-0.04527984104858199,-0.04494174717995496,-0.044599634017479274,-0.04419976004866712,-0.0438039052440534,-0.04341551285254903,-0.04303621334315031,-0.04266590609933308,-0.04226033503841202,-0.04187630325851478,-0.04150395149677696,-0.041127439253498585,-0.040732178181186886,-0.04027113374450784,-0.039805304807439025,-0.03933926673874779,-0.03887577192506852,-0.038416554532727305,-0.037925555030280333,-0.03745943095429655,-0.037009927165109535,-0.03656193804987506,-0.036100930884267725,-0.035584476511603194,-0.03506838633659661,-0.03455384576572186,-0.03404022084206775,-0.03352714057580077,-0.0329840862593517,-0.03246468883394417,-0.03196200003312202,-0.031462532261640655,-0.030953350267333816,-0.030399284081297058,-0.029850725085421536,-0.029306431203311136,-0.028762813065643846,-0.028217175393783715,-0.02764453666507631,-0.027093099623051953,-0.026556481890987017,-0.026022700033965847,-0.025481000520233617,0.0,0.0,0.0,0.0,0.0,0.0,0.0,0.0,0.0,0.0,0.0,0.0,0.0,0.0,0.0,0.0,0.0,0.0,0.0,0.0,0.0,0.0,0.0,0.0,0.0,0.0,0.0,0.0,0.0,0.0,0.0,0.0,0.0,0.0,0.0,0.0,0.0,0.0,0.0,0.0,0.0,0.0,0.0,0.0,0.0,0.0,0.0,0.0,0.0,0.0,0.0,0.0,0.0,0.0,0.0,0.0,0.0,0.0,0.0,0.0,0.0,0.0,0.0,0.0,0.0,0.0,0.0,0.0,0.0,0.0,0.0,0.0,0.0,0.0,0.0,0.0,0.0,0.0,0.0,0.0,0.0,0.0,0.0,0.0,0.0,0.0,0.0,0.0,0.0,0.0,0.0,0.0,0.0,0.0,0.0,0.0,0.0,0.0,0.0,0.0,0.0,0.0,0.0,0.0,0.0,0.0,0.0,0.0,0.0,0.0,0.0,0.0,0.0,0.0,0.0,0.0,0.0,0.0,0.0,0.0,0.0,0.0,0.0,0.0,0.0,0.0,0.0,0.0,0.0,0.0,0.0,0.0,0.0,0.0,0.0,0.0,0.0,0.0,0.0,0.0,0.0,0.0,0.0,0.0,0.0,0.0,0.0,0.0,0.0,0.0,0.0,0.0,0.0,0.0,0.0,0.0,0.0,0.0,0.0,0.0,0.0,0.0,0.0,0.0,0.0,0.0,0.0,0.0,0.0,0.0,0.0,0.0,0.0,0.0,0.0,0.0,0.0,0.0,0.0,0.0,0.0,0.0,0.0,0.0,0.0,0.0,0.0,0.0,0.0,0.0,0.0,0.0,0.0,0.0,0.0,0.0,0.0,0.0,0.0,0.0,0.0,0.0,0.0,0.0,0.0,0.0,0.0,0.0,0.0,0.0,0.0,0.0,0.0,0.0,0.0,0.0,0.0,0.0,0.0,0.0,0.0,0.0,0.0,0.0,0.0,0.0,0.0,0.0,0.0,0.0,0.0,0.0,0.0,0.0,0.0,0.0,0.0,0.0,0.0
0.07229705697087929,0.06823142974225166,0.06136989343513958,0.0528927912703606,0.043979814777213036,0.035548335953043485,0.028337583757291968,0.022654524149018314,0.018443047317271498,0.01536544043032132,0.012888494410925483,0.0105368492415496,0.007938223745131692,0.004913804399631363,0.0014940170229701451,-0.0021451465823420623,-0.005674041272327012,-0.00874037216516454,-0.011040478791675894,-0.01237740638438103,-0.01270248988604084,-0.012065084504549546,-0.010602898560472493,-0.008512435597643803,-0.006032188902032494,-0.0034659109364064177,-0.001130772955922824,0.0005882665353345943,0.0012373665683395275,0.0003130285803160382,-0.0027086646303584806,-0.008185017280489827,-0.016240782785334657,-0.026641923827977577,-0.038724202928706555,-0.051415384798922784,-0.06326055577909649,-0.07261176634083871,-0.07787144088478754,-0.07776143443772915,-0.0715811356867831,-0.059337306498631406,-0.04177134359913908,-0.020303158718849596,0.0031536325218440337,0.026363270987120543,0.04737636762353436,0.06457009009265166,0.07691617985602316,0.08406869948141722,0.0861533789593198,0.08420743134288149,0.07946899399749537,0.07328681043976565,0.06688780189504577,0.06105721956541294,0.05644962164567336,0.05320464729780128,0.051108023631030036,0.04970690430867431,0.04836826414148373,0.0,0.0,0.0,0.0,0.0,0.0,0.0,0.0,0.0,0.0,0.0,0.0,0.0,0.0,0.0,0.0,0.0,0.0,0.0,0.0,0.0,0.0,0.0,0.0,0.0,0.0,0.0,0.0,0.0,0.0,0.0,0.0,0.0,0.0,0.0,0.0,0.0,0.0,0.0,0.0,0.0,0.0,0.0,0.0,0.0,0.0,0.0,0.0,0.0,0.0,0.0,0.0,0.0,0.0,0.0,0.0,0.0,0.0,0.0,0.0,0.0,0.0,0.0,0.0,0.0,0.0,0.0,0.0,0.0,0.0,0.0,0.0,0.0,0.0,0.0,0.0,0.0,0.0,0.0,0.0,0.0,0.0,0.0,0.0,0.0,0.0,0.0,0.0,0.0,0.0,0.0,0.0,0.0,0.0,0.0,0.0,0.0,0.0,0.0,0.0,0.0,0.0,0.0,0.0,0.0,0.0,0.0,0.0,0.0,0.0,0.0,0.0,0.0,0.0,0.0,0.0,0.0,0.0,0.0,0.0,0.0,0.0,0.0,0.0,0.0,0.0,0.0,0.0,0.0,0.0,0.0,0.0,0.0,0.0,0.0,0.0,0.0,0.0,0.0,0.0,0.0,0.0,0.0,0.0,0.0,0.0,0.0,0.0,0.0,0.0,0.0,0.0,0.0,0.0,0.0,0.0,0.0,0.0,0.0,0.0,0.0,0.0,0.0,0.0,0.0,0.0,0.0,0.0,0.0,0.0,0.0,0.0,0.0,0.0,0.0,0.0,0.0,0.0,0.0,0.0,0.0,0.0,0.0,0.0,0.0,0.0,0.0,0.0,0.0,0.0,0.0,0.0,0.0,0.0,0.0,0.0,0.0,0.0,0.0,0.0,0.0,0.0,0.0,0.0,0.0,0.0,0.0,0.0,0.0,0.0,0.0,0.0,0.0,0.0,0.0,0.0,0.0,0.0,0.0,0.0,0.0,0.0,0.0,0.0,0.0,0.0,0.0,0.0,0.0,0.0,0.0,0.0,0.0,0.0,0.0,0.0,0.0,0.0,0.0,-0.030399284081297058,-0.029850725085421536,-0.029306431203311136,-0.028762813065643846,-0.028217175393783715,-0.02764453666507631,-0.027093099623051953,-0.026556481890987017,-0.026022700033965847,-0.025481000520233617,-0.024905254155403917,-0.024340971203723576,-0.02378638890297894,-0.023236535084011262,-0.02268688215046048,-0.022117305538413234,-0.021566323420853715,-0.02102300986330605,-0.020470382848195294,-0.019892763780687342,-0.019267033510684876,-0.01862837595708139,-0.01797339985360639,-0.01729919784410899,-0.016607861131827346,-0.015897608163023595,-0.015213598335052455,-0.014559193167547784,-0.01393078720941182,-0.013322958482967348,-0.012725092799719409,-0.012163495415424238,-0.011626145366001131,-0.011096723811379518,-0.01056145032125988,-0.010010049906438792,-0.009466076350188774,-0.008922061079177968,-0.008368660674132621,-0.007799942159552411,-0.0072165545715715375,-0.0066434587655719675,-0.00607596604062779,-0.005505531539180772,-0.00492560396755347,-0.00433927476106017,-0.003765777882350509,-0.003198976975833707,-0.002629659671217019,-0.002051265775554529,-0.0014709371285263372,-0.000903740378816968,-0.0003429282583851276,0.0002214121393940763,0.0007964404582605731,0.0013714875778884264,0.0019360053080194027,0.0024969268744852446,0.0030640128802390536,0.003644146692075675,0.004222593334541361,0.0,0.0,0.0,0.0,0.0,0.0,0.0,0.0,0.0,0.0,0.0,0.0,0.0,0.0,0.0,0.0,0.0,0.0,0.0,0.0,0.0,0.0,0.0,0.0,0.0,0.0,0.0,0.0,0.0,0.0,0.0,0.0,0.0,0.0,0.0,0.0,0.0,0.0,0.0,0.0,0.0,0.0,0.0,0.0,0.0,0.0,0.0,0.0,0.0,0.0,0.0,0.0,0.0,0.0,0.0,0.0,0.0,0.0,0.0,0.0,0.0,0.0,0.0,0.0,0.0,0.0,0.0,0.0,0.0,0.0,0.0,0.0,0.0,0.0,0.0,0.0,0.0,0.0,0.0,0.0,0.0,0.0,0.0,0.0,0.0,0.0,0.0,0.0,0.0,0.0,0.0,0.0,0.0,0.0,0.0,0.0,0.0,0.0,0.0,0.0,0.0,0.0,0.0,0.0,0.0,0.0,0.0,0.0,0.0,0.0,0.0,0.0,0.0,0.0,0.0,0.0,0.0,0.0,0.0,0.0,0.0,0.0,0.0,0.0,0.0,0.0,0.0,0.0,0.0,0.0,0.0,0.0,0.0,0.0,0.0,0.0,0.0,0.0,0.0,0.0,0.0,0.0,0.0,0.0,0.0,0.0,0.0,0.0,0.0,0.0,0.0,0.0,0.0,0.0,0.0,0.0,0.0,0.0,0.0,0.0,0.0,0.0,0.0,0.0,0.0,0.0,0.0,0.0,0.0,0.0,0.0,0.0,0.0,0.0,0.0,0.0,0.0,0.0,0.0,0.0,0.0,0.0,0.0,0.0,0.0,0.0,0.0,0.0,0.0,0.0,0.0,0.0,0.0,0.0,0.0,0.0,0.0,0.0,0.0,0.0,0.0,0.0,0.0,0.0,0.0,0.0,0.0,0.0,0.0,0.0,0.0,0.0,0.0,0.0,0.0,0.0,0.0,0.0,0.0,0.0,0.0,0.0,0.0,0.0,0.0,0.0,0.0,0.0,0.0,0.0,0.0,0.0,0.0,0.0,0.0,0.0,0.0,0.0,0.0
0.08420743134288149,0.07946899399749537,0.07328681043976565,0.06688780189504577,0.06105721956541294,0.05644962164567336,0.05320464729780128,0.051108023631030036,0.04970690430867431,0.04836826414148373,0.04669283862094641,0.04440853201583595,0.0414818117920721,0.038102908328460014,0.034543304792942736,0.03127348373705068,0.028690356297702318,0.02706759313678823,0.02649891234824572,0.026831521932418636,0.02787352880508783,0.029349607865906308,0.030996723533307968,0.032616324182050384,0.034167564201504616,0.035554805694977716,0.03676936615530906,0.03782356797921987,0.03873373601585503,0.03970510454183788,0.040541462919087695,0.041098478350268766,0.041224925546473085,0.04084787332116847,0.040209359837535624,0.03948931913992983,0.03920915541878771,0.04009166633146896,0.04296201062648192,0.04868285769734233,0.057655962833143184,0.0699620970092239,0.08513904004065029,0.10216283043910379,0.11951301192284333,0.13552509348075142,0.14858052222350687,0.15742073662401376,0.16136365025172567,0.16022285657220794,0.15483400624272128,0.1463646923457747,0.13620940178049754,0.12570582281931278,0.11573804933312583,0.1070992506557721,0.10002732482502372,0.0944305402848645,0.09004799538689988,0.08648121484827068,0.08374746212497243,0.0,0.0,0.0,0.0,0.0,0.0,0.0,0.0,0.0,0.0,0.0,0.0,0.0,0.0,0.0,0.0,0.0,0.0,0.0,0.0,0.0,0.0,0.0,0.0,0.0,0.0,0.0,0.0,0.0,0.0,0.0,0.0,0.0,0.0,0.0,0.0,0.0,0.0,0.0,0.0,0.0,0.0,0.0,0.0,0.0,0.0,0.0,0.0,0.0,0.0,0.0,0.0,0.0,0.0,0.0,0.0,0.0,0.0,0.0,0.0,0.0,0.0,0.0,0.0,0.0,0.0,0.0,0.0,0.0,0.0,0.0,0.0,0.0,0.0,0.0,0.0,0.0,0.0,0.0,0.0,0.0,0.0,0.0,0.0,0.0,0.0,0.0,0.0,0.0,0.0,0.0,0.0,0.0,0.0,0.0,0.0,0.0,0.0,0.0,0.0,0.0,0.0,0.0,0.0,0.0,0.0,0.0,0.0,0.0,0.0,0.0,0.0,0.0,0.0,0.0,0.0,0.0,0.0,0.0,0.0,0.0,0.0,0.0,0.0,0.0,0.0,0.0,0.0,0.0,0.0,0.0,0.0,0.0,0.0,0.0,0.0,0.0,0.0,0.0,0.0,0.0,0.0,0.0,0.0,0.0,0.0,0.0,0.0,0.0,0.0,0.0,0.0,0.0,0.0,0.0,0.0,0.0,0.0,0.0,0.0,0.0,0.0,0.0,0.0,0.0,0.0,0.0,0.0,0.0,0.0,0.0,0.0,0.0,0.0,0.0,0.0,0.0,0.0,0.0,0.0,0.0,0.0,0.0,0.0,0.0,0.0,0.0,0.0,0.0,0.0,0.0,0.0,0.0,0.0,0.0,0.0,0.0,0.0,0.0,0.0,0.0,0.0,0.0,0.0,0.0,0.0,0.0,0.0,0.0,0.0,0.0,0.0,0.0,0.0,0.0,0.0,0.0,0.0,0.0,0.0,0.0,0.0,0.0,0.0,0.0,0.0,0.0,0.0,0.0,0.0,0.0,0.0,0.0,0.0,0.0,0.0,0.0,0.0,0.0,-0.000903740378816968,-0.0003429282583851276,0.0002214121393940763,0.0007964404582605731,0.0013714875778884264,0.0019360053080194027,0.0024969268744852446,0.0030640128802390536,0.003644146692075675,0.004222593334541361,0.004793211021021764,0.0053631719414030075,0.005941808936114335,0.006534674965410095,0.007121126954116655,0.007696992463036323,0.008267696406664157,0.008841710819871732,0.009425203238744516,0.00999601092560497,0.010557840623178334,0.01112004003728422,0.011693576083495427,0.012284630478509464,0.012864343057130537,0.01343609433077269,0.014003341424001635,0.014571638485978769,0.015144057718274413,0.015688258674276718,0.016216438663246593,0.01673884567920998,0.01726816810821499,0.017812987906162973,0.01833986237002123,0.018864042850817383,0.0193918331641624,0.019930148277267388,0.020481918094051536,0.021006412820054006,0.021522218418142707,0.022037746246070022,0.02256341387503681,0.023105574267516533,0.023622057613493667,0.02413578811040306,0.024653672841274312,0.025183501841186073,0.02572923044098153,0.02624416453531105,0.026756260493789,0.02727465924065166,0.027809154030580825,0.028364218355678622,0.028888112617362315,0.02940907283892078,0.029931497177040856,0.030460785045215665,0.030999206270375713,0.0314928890867291,0.031978777124359294,0.0,0.0,0.0,0.0,0.0,0.0,0.0,0.0,0.0,0.0,0.0,0.0,0.0,0.0,0.0,0.0,0.0,0.0,0.0,0.0,0.0,0.0,0.0,0.0,0.0,0.0,0.0,0.0,0.0,0.0,0.0,0.0,0.0,0.0,0.0,0.0,0.0,0.0,0.0,0.0,0.0,0.0,0.0,0.0,0.0,0.0,0.0,0.0,0.0,0.0,0.0,0.0,0.0,0.0,0.0,0.0,0.0,0.0,0.0,0.0,0.0,0.0,0.0,0.0,0.0,0.0,0.0,0.0,0.0,0.0,0.0,0.0,0.0,0.0,0.0,0.0,0.0,0.0,0.0,0.0,0.0,0.0,0.0,0.0,0.0,0.0,0.0,0.0,0.0,0.0,0.0,0.0,0.0,0.0,0.0,0.0,0.0,0.0,0.0,0.0,0.0,0.0,0.0,0.0,0.0,0.0,0.0,0.0,0.0,0.0,0.0,0.0,0.0,0.0,0.0,0.0,0.0,0.0,0.0,0.0,0.0,0.0,0.0,0.0,0.0,0.0,0.0,0.0,0.0,0.0,0.0,0.0,0.0,0.0,0.0,0.0,0.0,0.0,0.0,0.0,0.0,0.0,0.0,0.0,0.0,0.0,0.0,0.0,0.0,0.0,0.0,0.0,0.0,0.0,0.0,0.0,0.0,0.0,0.0,0.0,0.0,0.0,0.0,0.0,0.0,0.0,0.0,0.0,0.0,0.0,0.0,0.0,0.0,0.0,0.0,0.0,0.0,0.0,0.0,0.0,0.0,0.0,0.0,0.0,0.0,0.0,0.0,0.0,0.0,0.0,0.0,0.0,0.0,0.0,0.0,0.0,0.0,0.0,0.0,0.0,0.0,0.0,0.0,0.0,0.0,0.0,0.0,0.0,0.0,0.0,0.0,0.0,0.0,0.0,0.0,0.0,0.0,0.0,0.0,0.0,0.0,0.0,0.0,0.0,0.0,0.0,0.0,0.0,0.0,0.0,0.0,0.0,0.0,0.0,0.0,0.0,0.0,0.0,0.0
0.1463646923457747,0.13620940178049754,0.12570582281931278,0.11573804933312583,0.1070992506557721,0.10002732482502372,0.0944305402848645,0.09004799538689988,0.08648121484827068,0.08374746212497243,0.08192453819571881,0.08117028061589596,0.08153910415900446,0.08263253053363316,0.08381985659474836,0.08382079628241121,0.08088314508650937,0.07303021293110909,0.05832594641334509,0.03569746397804525,0.005035138401930655,-0.032473391520245976,-0.07433926617284115,-0.117178253321335,-0.1568140016914716,-0.1892965953190529,-0.21150349325289738,-0.22170874527679135,-0.22003474299983694,-0.2079597160448104,-0.18832909057477157,-0.16462982737483084,-0.14027037658937558,-0.11807178650194243,-0.09934239949831572,-0.08412382463603794,-0.07125723872686077,-0.058832007901959804,-0.04493626081073954,-0.02776094759005993,-0.0064610763522119224,0.018736100769871783,0.04656621167934016,0.07476523611182698,0.10123207459587404,0.12383275451723517,0.14099657760369277,0.1519644312606401,0.1565426436899734,0.1559761695977254,0.15177614169752104,0.14566806979233335,0.1392587006230201,0.13349867520627848,0.1293665717711439,0.12706201452889018,0.12631615122414047,0.1265529699854001,0.1268630962925582,0.1268905590281353,0.12633402883740863,0.0,0.0,0.0,0.0,0.0,0.0,0.0,0.0,0.0,0.0,0.0,0.0,0.0,0.0,0.0,0.0,0.0,0.0,0.0,0.0,0.0,0.0,0.0,0.0,0.0,0.0,0.0,0.0,0.0,0.0,0.0,0.0,0.0,0.0,0.0,0.0,0.0,0.0,0.0,0.0,0.0,0.0,0.0,0.0,0.0,0.0,0.0,0.0,0.0,0.0,0.0,0.0,0.0,0.0,0.0,0.0,0.0,0.0,0.0,0.0,0.0,0.0,0.0,0.0,0.0,0.0,0.0,0.0,0.0,0.0,0.0,0.0,0.0,0.0,0.0,0.0,0.0,0.0,0.0,0.0,0.0,0.0,0.0,0.0,0.0,0.0,0.0,0.0,0.0,0.0,0.0,0.0,0.0,0.0,0.0,0.0,0.0,0.0,0.0,0.0,0.0,0.0,0.0,0.0,0.0,0.0,0.0,0.0,0.0,0.0,0.0,0.0,0.0,0.0,0.0,0.0,0.0,0.0,0.0,0.0,0.0,0.0,0.0,0.0,0.0,0.0,0.0,0.0,0.0,0.0,0.0,0.0,0.0,0.0,0.0,0.0,0.0,0.0,0.0,0.0,0.0,0.0,0.0,0.0,0.0,0.0,0.0,0.0,0.0,0.0,0.0,0.0,0.0,0.0,0.0,0.0,0.0,0.0,0.0,0.0,0.0,0.0,0.0,0.0,0.0,0.0,0.0,0.0,0.0,0.0,0.0,0.0,0.0,0.0,0.0,0.0,0.0,0.0,0.0,0.0,0.0,0.0,0.0,0.0,0.0,0.0,0.0,0.0,0.0,0.0,0.0,0.0,0.0,0.0,0.0,0.0,0.0,0.0,0.0,0.0,0.0,0.0,0.0,0.0,0.0,0.0,0.0,0.0,0.0,0.0,0.0,0.0,0.0,0.0,0.0,0.0,0.0,0.0,0.0,0.0,0.0,0.0,0.0,0.0,0.0,0.0,0.0,0.0,0.0,0.0,0.0,0.0,0.0,0.0,0.0,0.0,0.0,0.0,0.0,0.02727465924065166,0.027809154030580825,0.028364218355678622,0.028888112617362315,0.02940907283892078,0.029931497177040856,0.030460785045215665,0.030999206270375713,0.0314928890867291,0.031978777124359294,0.03246810029940266,0.032972696964267904,0.03349870302371571,0.03398892146860227,0.03448011644538486,0.034976584025719834,0.035482471774084465,0.03599819977705569,0.03646169790171241,0.036916775549845175,0.03737443297293156,0.03784650173781906,0.03833945331097583,0.03879048501743926,0.03924539322942429,0.039709717484435914,0.040188075902788965,0.04068070684489597,0.04111869348991874,0.041553006871714,0.04199394618093281,0.04245205529482054,0.04293229815306179,0.04336445931828083,0.04380115688745536,0.04424775084594263,0.04470862241492835,0.045183889461227617,0.0455988711120828,0.04601240017114354,0.046435424480824765,0.04687843877175744,0.047345730550116726,0.047760299661863896,0.04818067272935026,0.04861091006614341,0.0490536983901114,0.049507571639005835,0.04989141762497289,0.05027097455307451,0.05065792350346185,0.05106359718732477,0.05149323299946419,0.05186554697328819,0.052246983000832595,0.05264225861734446,0.05305372678161699,0.05347889435992254,0.05383015650099093,0.05417889518676951,0.0545358311396562,0.0,0.0,0.0,0.0,0.0,0.0,0.0,0.0,0.0,0.0,0.0,0.0,0.0,0.0,0.0,0.0,0.0,0.0,0.0,0.0,0.0,0.0,0.0,0.0,0.0,0.0,0.0,0.0,0.0,0.0,0.0,0.0,0.0,0.0,0.0,0.0,0.0,0.0,0.0,0.0,0.0,0.0,0.0,0.0,0.0,0.0,0.0,0.0,0.0,0.0,0.0,0.0,0.0,0.0,0.0,0.0,0.0,0.0,0.0,0.0,0.0,0.0,0.0,0.0,0.0,0.0,0.0,0.0,0.0,0.0,0.0,0.0,0.0,0.0,0.0,0.0,0.0,0.0,0.0,0.0,0.0,0.0,0.0,0.0,0.0,0.0,0.0,0.0,0.0,0.0,0.0,0.0,0.0,0.0,0.0,0.0,0.0,0.0,0.0,0.0,0.0,0.0,0.0,0.0,0.0,0.0,0.0,0.0,0.0,0.0,0.0,0.0,0.0,0.0,0.0,0.0,0.0,0.0,0.0,0.0,0.0,0.0,0.0,0.0,0.0,0.0,0.0,0.0,0.0,0.0,0.0,0.0,0.0,0.0,0.0,0.0,0.0,0.0,0.0,0.0,0.0,0.0,0.0,0.0,0.0,0.0,0.0,0.0,0.0,0.0,0.0,0.0,0.0,0.0,0.0,0.0,0.0,0.0,0.0,0.0,0.0,0.0,0.0,0.0,0.0,0.0,0.0,0.0,0.0,0.0,0.0,0.0,0.0,0.0,0.0,0.0,0.0,0.0,0.0,0.0,0.0,0.0,0.0,0.0,0.0,0.0,0.0,0.0,0.0,0.0,0.0,0.0,0.0,0.0,0.0,0.0,0.0,0.0,0.0,0.0,0.0,0.0,0.0,0.0,0.0,0.0,0.0,0.0,0.0,0.0,0.0,0.0,0.0,0.0,0.0,0.0,0.0,0.0,0.0,0.0,0.0,0.0,0.0,0.0,0.0,0.0,0.0,0.0,0.0,0.0,0.0,0.0,0.0,0.0,0.0,0.0,0.0,0.0,0.0
0.14566806979233335,0.1392587006230201,0.13349867520627848,0.1293665717711439,0.12706201452889018,0.12631615122414047,0.1265529699854001,0.1268630962925582,0.1268905590281353,0.12633402883740863,0.12517207051913168,0.12361942044691963,0.12182461525880045,0.12036943873787952,0.11959665668709833,0.11969772713022939,0.12068587090843916,0.12224362443697957,0.12432621828456937,0.1267323470891332,0.12929495248807577,0.13189816958267625,0.1343685438144872,0.1367066758870279,0.13894024723771956,0.14108652342961947,0.14311046825691334,0.14488602543216283,0.1461801328001566,0.14695385177811088,0.14724689020151197,0.14717132388965287,0.14685591679798163,0.14656689414384774,0.14678926268872547,0.14813141423289813,0.1512321795223924,0.1565432177956252,0.16443901294970018,0.17497290477548272,0.18779702655430763,0.20212874467877637,0.21661764067577807,0.23008928623119437,0.24126357322481207,0.24911118034332533,0.25302530983516036,0.25262026708853746,0.2486584849158705,0.24206843295799613,0.23401287679267357,0.22565440121769098,0.21766873317279364,0.2109247427396371,0.20562623806431862,0.20157560463977153,0.19828349260022163,0.19489523544686443,0.19110980314841058,0.186613162093203,0.18136102806037646,0.0,0.0,0.0,0.0,0.0,0.0,0.0,0.0,0.0,0.0,0.0,0.0,0.0,0.0,0.0,0.0,0.0,0.0,0.0,0.0,0.0,0.0,0.0,0.0,0.0,0.0,0.0,0.0,0.0,0.0,0.0,0.0,0.0,0.0,0.0,0.0,0.0,0.0,0.0,0.0,0.0,0.0,0.0,0.0,0.0,0.0,0.0,0.0,0.0,0.0,0.0,0.0,0.0,0.0,0.0,0.0,0.0,0.0,0.0,0.0,0.0,0.0,0.0,0.0,0.0,0.0,0.0,0.0,0.0,0.0,0.0,0.0,0.0,0.0,0.0,0.0,0.0,0.0,0.0,0.0,0.0,0.0,0.0,0.0,0.0,0.0,0.0,0.0,0.0,0.0,0.0,0.0,0.0,0.0,0.0,0.0,0.0,0.0,0.0,0.0,0.0,0.0,0.0,0.0,0.0,0.0,0.0,0.0,0.0,0.0,0.0,0.0,0.0,0.0,0.0,0.0,0.0,0.0,0.0,0.0,0.0,0.0,0.0,0.0,0.0,0.0,0.0,0.0,0.0,0.0,0.0,0.0,0.0,0.0,0.0,0.0,0.0,0.0,0.0,0.0,0.0,0.0,0.0,0.0,0.0,0.0,0.0,0.0,0.0,0.0,0.0,0.0,0.0,0.0,0.0,0.0,0.0,0.0,0.0,0.0,0.0,0.0,0.0,0.0,0.0,0.0,0.0,0.0,0.0,0.0,0.0,0.0,0.0,0.0,0.0,0.0,0.0,0.0,0.0,0.0,0.0,0.0,0.0,0.0,0.0,0.0,0.0,0.0,0.0,0.0,0.0,0.0,0.0,0.0,0.0,0.0,0.0,0.0,0.0,0.0,0.0,0.0,0.0,0.0,0.0,0.0,0.0,0.0,0.0,0.0,0.0,0.0,0.0,0.0,0.0,0.0,0.0,0.0,0.0,0.0,0.0,0.0,0.0,0.0,0.0,0.0,0.0,0.0,0.0,0.0,0.0,0.0,0.0,0.0,0.0,0.0,0.0,0.0,0.0,0.05106359718732477,0.05149323299946419,0.05186554697328819,0.052246983000832595,0.05264225861734446,0.05305372678161699,0.05347889435992254,0.05383015650099093,0.05417889518676951,0.0545358311396562,0.05491128390203398,0.05530986813331797,0.055645296108990897,0.05599161045155005,0.05635491325649436,0.056738604343921334,0.05714084190671341,0.05746924945185473,0.05780158090983272,0.05814781173112101,0.058516539494319696,0.0589101705173905,0.059235511170804084,0.05957131466968106,0.05992279114198155,0.06029278950870299,0.060679499128067596,0.06098669232349157,0.06129933296698385,0.06162856408134691,0.06198332785987783,0.0623655436146655,0.06267645988646557,0.06299899711731806,0.06333625882630435,0.06368851510280579,0.06405158810126341,0.06432352068836321,0.06459465879643338,0.06487697448454753,0.06518085237295451,0.0655102275330931,0.06576449447570407,0.06603469754669465,0.06632585068193286,0.06663883217893675,0.06696886696492282,0.06720820074651462,0.06745093424612615,0.06770706783223614,0.06798498723516956,0.06828723487062033,0.06850900377603608,0.06874736498634025,0.0690089009979941,0.0692960917951644,0.06960560277631782,0.06982735655388525,0.07006067758356904,0.07031496099970513,0.0705966990480638,0.0,0.0,0.0,0.0,0.0,0.0,0.0,0.0,0.0,0.0,0.0,0.0,0.0,0.0,0.0,0.0,0.0,0.0,0.0,0.0,0.0,0.0,0.0,0.0,0.0,0.0,0.0,0.0,0.0,0.0,0.0,0.0,0.0,0.0,0.0,0.0,0.0,0.0,0.0,0.0,0.0,0.0,0.0,0.0,0.0,0.0,0.0,0.0,0.0,0.0,0.0,0.0,0.0,0.0,0.0,0.0,0.0,0.0,0.0,0.0,0.0,0.0,0.0,0.0,0.0,0.0,0.0,0.0,0.0,0.0,0.0,0.0,0.0,0.0,0.0,0.0,0.0,0.0,0.0,0.0,0.0,0.0,0.0,0.0,0.0,0.0,0.0,0.0,0.0,0.0,0.0,0.0,0.0,0.0,0.0,0.0,0.0,0.0,0.0,0.0,0.0,0.0,0.0,0.0,0.0,0.0,0.0,0.0,0.0,0.0,0.0,0.0,0.0,0.0,0.0,0.0,0.0,0.0,0.0,0.0,0.0,0.0,0.0,0.0,0.0,0.0,0.0,0.0,0.0,0.0,0.0,0.0,0.0,0.0,0.0,0.0,0.0,0.0,0.0,0.0,0.0,0.0,0.0,0.0,0.0,0.0,0.0,0.0,0.0,0.0,0.0,0.0,0.0,0.0,0.0,0.0,0.0,0.0,0.0,0.0,0.0,0.0,0.0,0.0,0.0,0.0,0.0,0.0,0.0,0.0,0.0,0.0,0.0,0.0,0.0,0.0,0.0,0.0,0.0,0.0,0.0,0.0,0.0,0.0,0.0,0.0,0.0,0.0,0.0,0.0,0.0,0.0,0.0,0.0,0.0,0.0,0.0,0.0,0.0,0.0,0.0,0.0,0.0,0.0,0.0,0.0,0.0,0.0,0.0,0.0,0.0,0.0,0.0,0.0,0.0,0.0,0.0,0.0,0.0,0.0,0.0,0.0,0.0,0.0,0.0,0.0,0.0,0.0,0.0,0.0,0.0,0.0,0.0,0.0,0.0,0.0,0.0,0.0,0.0
0.43785548647648664,0.41856017316469274,0.4001771072077104,0.3840871663385165,0.37131227186876076,0.36048253452634405,0.34871494016808585,0.33227749943017637,0.30700306750594747,0.27078731429098885,0.2228879314168314,0.1647825012787698,0.10011500225084337,0.033722830701094,-0.027824326258511892,-0.07864934116809479,-0.114203595394985,-0.1320474949284896,-0.13261769831837042,-0.11778500195277991,-0.09150593790520374,-0.05861250261676712,-0.023896678725285087,0.008294876010885847,0.035733047334990053,0.05732059293593638,0.07319215841734548,0.08425413747791946,0.09132426236441997,0.09577166074134329,0.0983159906485561,0.09934561898918122,0.09913761082580118,0.09786026187929896,0.0968376259945441,0.09772686981313478,0.1026847691546971,0.11402108417368295,0.1334115053714807,0.16227845260105106,0.20047436460096013,0.24635576866305572,0.29688333883910234,0.3475238607300423,0.3944875915066772,0.4338665162026058,0.46276563048707536,0.47974559350452173,0.48426258770334096,0.47881913796425063,0.4662750332874491,0.44994621380707506,0.4329697951833309,0.41750744915030447,0.4053260763335616,0.3966142441100454,0.39063508850966916,0.38619399686214007,0.38234408787092367,0.3782830587287297,0.3735254885354703,0.0,0.0,0.0,0.0,0.0,0.0,0.0,0.0,0.0,0.0,0.0,0.0,0.0,0.0,0.0,0.0,0.0,0.0,0.0,0.0,0.0,0.0,0.0,0.0,0.0,0.0,0.0,0.0,0.0,0.0,0.0,0.0,0.0,0.0,0.0,0.0,0.0,0.0,0.0,0.0,0.0,0.0,0.0,0.0,0.0,0.0,0.0,0.0,0.0,0.0,0.0,0.0,0.0,0.0,0.0,0.0,0.0,0.0,0.0,0.0,0.0,0.0,0.0,0.0,0.0,0.0,0.0,0.0,0.0,0.0,0.0,0.0,0.0,0.0,0.0,0.0,0.0,0.0,0.0,0.0,0.0,0.0,0.0,0.0,0.0,0.0,0.0,0.0,0.0,0.0,0.0,0.0,0.0,0.0,0.0,0.0,0.0,0.0,0.0,0.0,0.0,0.0,0.0,0.0,0.0,0.0,0.0,0.0,0.0,0.0,0.0,0.0,0.0,0.0,0.0,0.0,0.0,0.0,0.0,0.0,0.0,0.0,0.0,0.0,0.0,0.0,0.0,0.0,0.0,0.0,0.0,0.0,0.0,0.0,0.0,0.0,0.0,0.0,0.0,0.0,0.0,0.0,0.0,0.0,0.0,0.0,0.0,0.0,0.0,0.0,0.0,0.0,0.0,0.0,0.0,0.0,0.0,0.0,0.0,0.0,0.0,0.0,0.0,0.0,0.0,0.0,0.0,0.0,0.0,0.0,0.0,0.0,0.0,0.0,0.0,0.0,0.0,0.0,0.0,0.0,0.0,0.0,0.0,0.0,0.0,0.0,0.0,0.0,0.0,0.0,0.0,0.0,0.0,0.0,0.0,0.0,0.0,0.0,0.0,0.0,0.0,0.0,0.0,0.0,0.0,0.0,0.0,0.0,0.0,0.0,0.0,0.0,0.0,0.0,0.0,0.0,0.0,0.0,0.0,0.0,0.0,0.0,0.0,0.0,0.0,0.0,0.0,0.0,0.0,0.0,0.0,0.0,0.0,0.0,0.0,0.0,0.0,0.0,0.0,0.00134405010490411,0.0013217399266965877,0.0012975734140070778,0.0012733289305147666,0.0012512858771908438,0.0012328236599455198,0.001218770525956502,0.0012096209465265238,0.001205551417611155,0.0012072153265958222,0.0012149773352253266,0.0012286929611732222,0.0012472213342035806,0.0012677595639216735,0.001286756258599776,0.001299305167716403,0.0013001837086824024,0.0012848217218806377,0.0012498966698179194,0.0011952903376475814,0.0011230693824029777,0.0010377236876751349,0.0009455390351835505,0.0008531821225375655,0.0007682791670535243,0.0006966225105875625,0.0006420786546603459,0.0006062563484864632,0.0005879454313830959,0.0005854752678551288,0.0005949302202963578,0.0006116291635486854,0.0006308518525664321,0.0006479356640244245,0.0006606766011270186,0.0006668044548268523,0.0006651019378983562,0.0006554473566464012,0.0006382660058414804,0.0006162269330446549,0.0005907996297993869,0.0005633276132773463,0.0005350574300625828,0.0005064984074794231,0.0004799805786530055,0.0004559774238099184,0.0004343913596430959,0.00041466750347876434,0.0003950504815016347,0.0003760285452417602,0.0003565603675360604,0.00033579034998896715,0.0003134108032518524,0.0002889794852612486,0.0002651149696551869,0.00024339000179492864,0.0002253396924183446,0.0002121541030249405,0.0002035090683881304,0.00020056446750850592,0.00020223929008168293,0.0,0.0,0.0,0.0,0.0,0.0,0.0,0.0,0.0,0.0,0.0,0.0,0.0,0.0,0.0,0.0,0.0,0.0,0.0,0.0,0.0,0.0,0.0,0.0,0.0,0.0,0.0,0.0,0.0,0.0,0.0,0.0,0.0,0.0,0.0,0.0,0.0,0.0,0.0,0.0,0.0,0.0,0.0,0.0,0.0,0.0,0.0,0.0,0.0,0.0,0.0,0.0,0.0,0.0,0.0,0.0,0.0,0.0,0.0,0.0,0.0,0.0,0.0,0.0,0.0,0.0,0.0,0.0,0.0,0.0,0.0,0.0,0.0,0.0,0.0,0.0,0.0,0.0,0.0,0.0,0.0,0.0,0.0,0.0,0.0,0.0,0.0,0.0,0.0,0.0,0.0,0.0,0.0,0.0,0.0,0.0,0.0,0.0,0.0,0.0,0.0,0.0,0.0,0.0,0.0,0.0,0.0,0.0,0.0,0.0,0.0,0.0,0.0,0.0,0.0,0.0,0.0,0.0,0.0,0.0,0.0,0.0,0.0,0.0,0.0,0.0,0.0,0.0,0.0,0.0,0.0,0.0,0.0,0.0,0.0,0.0,0.0,0.0,0.0,0.0,0.0,0.0,0.0,0.0,0.0,0.0,0.0,0.0,0.0,0.0,0.0,0.0,0.0,0.0,0.0,0.0,0.0,0.0,0.0,0.0,0.0,0.0,0.0,0.0,0.0,0.0,0.0,0.0,0.0,0.0,0.0,0.0,0.0,0.0,0.0,0.0,0.0,0.0,0.0,0.0,0.0,0.0,0.0,0.0,0.0,0.0,0.0,0.0,0.0,0.0,0.0,0.0,0.0,0.0,0.0,0.0,0.0,0.0,0.0,0.0,0.0,0.0,0.0,0.0,0.0,0.0,0.0,0.0,0.0,0.0,0.0,0.0,0.0,0.0,0.0,0.0,0.0,0.0,0.0,0.0,0.0,0.0,0.0,0.0,0.0,0.0,0.0,0.0,0.0,0.0,0.0,0.0,0.0,0.0,0.0,0.0,0.0,0.0,0.0
0.44994621380707506,0.4329697951833309,0.41750744915030447,0.4053260763335616,0.3966142441100454,0.39063508850966916,0.38619399686214007,0.38234408787092367,0.3782830587287297,0.3735254885354703,0.36802476025508846,0.3620833054620487,0.3563035033300301,0.3510349826647225,0.34637896272962093,0.34215076629857477,0.3379726140619572,0.33348479496824746,0.32827805249667114,0.3223005971618679,0.3157396890732067,0.30893357146795214,0.3020551291757221,0.29556044358768485,0.28969953687829103,0.2845357591922511,0.27989452887394706,0.27491625718180335,0.26945934273781835,0.2630893900436681,0.25549672708531246,0.2466202801002404,0.23623322261233956,0.2257405759024852,0.2168562040936761,0.2118672268398059,0.21334603132653368,0.22305981941652747,0.24344711996345617,0.27542800356002994,0.31830724438108277,0.3693656762453064,0.4229319808254638,0.4730838957796689,0.5120702031331384,0.5318779044360511,0.5253853211640791,0.4866658859923092,0.41503208730881824,0.31301143055733505,0.18730281255626183,0.048194417862825766,-0.09250554566879418,-0.22073030867394766,-0.32455514006254443,-0.395330563136936,-0.4289964854384276,-0.4272324408641239,-0.3948854570489379,-0.3407058274799366,-0.27489144152450656,0.0,0.0,0.0,0.0,0.0,0.0,0.0,0.0,0.0,0.0,0.0,0.0,0.0,0.0,0.0,0.0,0.0,0.0,0.0,0.0,0.0,0.0,0.0,0.0,0.0,0.0,0.0,0.0,0.0,0.0,0.0,0.0,0.0,0.0,0.0,0.0,0.0,0.0,0.0,0.0,0.0,0.0,0.0,0.0,0.0,0.0,0.0,0.0,0.0,0.0,0.0,0.0,0.0,0.0,0.0,0.0,0.0,0.0,0.0,0.0,0.0,0.0,0.0,0.0,0.0,0.0,0.0,0.0,0.0,0.0,0.0,0.0,0.0,0.0,0.0,0.0,0.0,0.0,0.0,0.0,0.0,0.0,0.0,0.0,0.0,0.0,0.0,0.0,0.0,0.0,0.0,0.0,0.0,0.0,0.0,0.0,0.0,0.0,0.0,0.0,0.0,0.0,0.0,0.0,0.0,0.0,0.0,0.0,0.0,0.0,0.0,0.0,0.0,0.0,0.0,0.0,0.0,0.0,0.0,0.0,0.0,0.0,0.0,0.0,0.0,0.0,0.0,0.0,0.0,0.0,0.0,0.0,0.0,0.0,0.0,0.0,0.0,0.0,0.0,0.0,0.0,0.0,0.0,0.0,0.0,0.0,0.0,0.0,0.0,0.0,0.0,0.0,0.0,0.0,0.0,0.0,0.0,0.0,0.0,0.0,0.0,0.0,0.0,0.0,0.0,0.0,0.0,0.0,0.0,0.0,0.0,0.0,0.0,0.0,0.0,0.0,0.0,0.0,0.0,0.0,0.0,0.0,0.0,0.0,0.0,0.0,0.0,0.0,0.0,0.0,0.0,0.0,0.0,0.0,0.0,0.0,0.0,0.0,0.0,0.0,0.0,0.0,0.0,0.0,0.0,0.0,0.0,0.0,0.0,0.0,0.0,0.0,0.0,0.0,0.0,0.0,0.0,0.0,0.0,0.0,0.0,0.0,0.0,0.0,0.0,0.0,0.0,0.0,0.0,0.0,0.0,0.0,0.0,0.0,0.0,0.0,0.0,0.0,0.0,0.00033579034998896715,0.0003134108032518524,0.0002889794852612486,0.0002651149696551869,0.00024339000179492864,0.0002253396924183446,0.0002121541030249405,0.0002035090683881304,0.00020056446750850592,0.00020223929008168293,0.0002067502768375215,0.00021207704010687891,0.0002154551292704033,0.0002172068128621709,0.00021693071048959985,0.00021490128377033764,0.0002119999771888173,0.00020841695037433585,0.0002070920722507758,0.0002091071773876009,0.0002148514162807453,0.00022386938644196227,0.00023365093454392696,0.0002432468382645815,0.00024948331390266617,0.000248404026099909,0.0002357387956951073,0.00020647310009991015,0.00015928025957554016,9.396608907540734e-05,1.306332349823625e-05,-7.803363428940613e-05,-0.00017263396026776518,-0.0002601127464868251,-0.0003307747258349402,-0.000376423197162705,-0.0003918060642739195,-0.00037671579902032057,-0.0003325506247752486,-0.00026528110624076984,-0.00018324137005487357,-9.563499451642708e-05,-1.1805432846240663e-05,6.245662637538496e-05,0.00012312655998317885,0.00016884212772323457,0.00020053607524106532,0.00022034087504940926,0.00023207619799194866,0.00023903754350430276,0.00024396451734306368,0.0002488202534458605,0.0002546053690546772,0.0002622509759180736,0.000271935437267952,0.0002836028418150834,0.0002971044316506557,0.0003122214507493044,0.0003287652777562155,0.00034619110692513875,0.00036378217422777483,0.0,0.0,0.0,0.0,0.0,0.0,0.0,0.0,0.0,0.0,0.0,0.0,0.0,0.0,0.0,0.0,0.0,0.0,0.0,0.0,0.0,0.0,0.0,0.0,0.0,0.0,0.0,0.0,0.0,0.0,0.0,0.0,0.0,0.0,0.0,0.0,0.0,0.0,0.0,0.0,0.0,0.0,0.0,0.0,0.0,0.0,0.0,0.0,0.0,0.0,0.0,0.0,0.0,0.0,0.0,0.0,0.0,0.0,0.0,0.0,0.0,0.0,0.0,0.0,0.0,0.0,0.0,0.0,0.0,0.0,0.0,0.0,0.0,0.0,0.0,0.0,0.0,0.0,0.0,0.0,0.0,0.0,0.0,0.0,0.0,0.0,0.0,0.0,0.0,0.0,0.0,0.0,0.0,0.0,0.0,0.0,0.0,0.0,0.0,0.0,0.0,0.0,0.0,0.0,0.0,0.0,0.0,0.0,0.0,0.0,0.0,0.0,0.0,0.0,0.0,0.0,0.0,0.0,0.0,0.0,0.0,0.0,0.0,0.0,0.0,0.0,0.0,0.0,0.0,0.0,0.0,0.0,0.0,0.0,0.0,0.0,0.0,0.0,0.0,0.0,0.0,0.0,0.0,0.0,0.0,0.0,0.0,0.0,0.0,0.0,0.0,0.0,0.0,0.0,0.0,0.0,0.0,0.0,0.0,0.0,0.0,0.0,0.0,0.0,0.0,0.0,0.0,0.0,0.0,0.0,0.0,0.0,0.0,0.0,0.0,0.0,0.0,0.0,0.0,0.0,0.0,0.0,0.0,0.0,0.0,0.0,0.0,0.0,0.0,0.0,0.0,0.0,0.0,0.0,0.0,0.0,0.0,0.0,0.0,0.0,0.0,0.0,0.0,0.0,0.0,0.0,0.0,0.0,0.0,0.0,0.0,0.0,0.0,0.0,0.0,0.0,0.0,0.0,0.0,0.0,0.0,0.0,0.0,0.0,0.0,0.0,0.0,0.0,0.0,0.0,0.0,0.0,0.0,0.0,0.0,0.0,0.0,0.0,0.0
0.048194417862825766,-0.09250554566879418,-0.22073030867394766,-0.32455514006254443,-0.395330563136936,-0.4289964854384276,-0.4272324408641239,-0.3948854570489379,-0.3407058274799366,-0.27489144152450656,-0.20710910262224283,-0.1453985525748736,-0.09322135788089785,-0.05106962246392681,-0.016482681118337863,0.014778280193941893,0.04676971126261103,0.08371185692161694,0.12742060438648356,0.17748260607023902,0.23153602975863016,0.28554507307548166,0.33634546823104955,0.38107781170213406,0.4183158450377603,0.4482937793233184,0.47222755514433173,0.4931354218536294,0.5136628125822619,0.5357585493329969,0.5601705375408826,0.5859209025334308,0.6118395411527654,0.6359020829836947,0.656300408164963,0.6720472957584468,0.6829577885509832,0.6907053313092636,0.6973180359811273,0.7048313466945811,0.7145703424095431,0.7260627238138162,0.7386525051130598,0.7499672427319436,0.7570434459852341,0.7570933890606394,0.7474801282782424,0.7286957633816116,0.7020352224655871,0.6700805091935276,0.6361072490034128,0.6028872409247524,0.5733240934300803,0.5489108877351206,0.5298343083407574,0.5151211089461861,0.5029200805676965,0.49124466218085183,0.4787983519282957,0.4650370836513744,0.4501488586082185,0.0,0.0,0.0,0.0,0.0,0.0,0.0,0.0,0.0,0.0,0.0,0.0,0.0,0.0,0.0,0.0,0.0,0.0,0.0,0.0,0.0,0.0,0.0,0.0,0.0,0.0,0.0,0.0,0.0,0.0,0.0,0.0,0.0,0.0,0.0,0.0,0.0,0.0,0.0,0.0,0.0,0.0,0.0,0.0,0.0,0.0,0.0,0.0,0.0,0.0,0.0,0.0,0.0,0.0,0.0,0.0,0.0,0.0,0.0,0.0,0.0,0.0,0.0,0.0,0.0,0.0,0.0,0.0,0.0,0.0,0.0,0.0,0.0,0.0,0.0,0.0,0.0,0.0,0.0,0.0,0.0,0.0,0.0,0.0,0.0,0.0,0.0,0.0,0.0,0.0,0.0,0.0,0.0,0.0,0.0,0.0,0.0,0.0,0.0,0.0,0.0,0.0,0.0,0.0,0.0,0.0,0.0,0.0,0.0,0.0,0.0,0.0,0.0,0.0,0.0,0.0,0.0,0.0,0.0,0.0,0.0,0.0,0.0,0.0,0.0,0.0,0.0,0.0,0.0,0.0,0.0,0.0,0.0,0.0,0.0,0.0,0.0,0.0,0.0,0.0,0.0,0.0,0.0,0.0,0.0,0.0,0.0,0.0,0.0,0.0,0.0,0.0,0.0,0.0,0.0,0.0,0.0,0.0,0.0,0.0,0.0,0.0,0.0,0.0,0.0,0.0,0.0,0.0,0.0,0.0,0.0,0.0,0.0,0.0,0.0,0.0,0.0,0.0,0.0,0.0,0.0,0.0,0.0,0.0,0.0,0.0,0.0,0.0,0.0,0.0,0.0,0.0,0.0,0.0,0.0,0.0,0.0,0.0,0.0,0.0,0.0,0.0,0.0,0.0,0.0,0.0,0.0,0.0,0.0,0.0,0.0,0.0,0.0,0.0,0.0,0.0,0.0,0.0,0.0,0.0,0.0,0.0,0.0,0.0,0.0,0.0,0.0,0.0,0.0,0.0,0.0,0.0,0.0,0.0,0.0,0.0,0.0,0.0,0.0,0.0002488202534458605,0.0002546053690546772,0.0002622509759180736,0.000271935437267952,0.0002836028418150834,0.0002971044316506557,0.0003122214507493044,0.0003287652777562155,0.00034619110692513875,0.00036378217422777483,0.00038081746767296,0.00039656738328741365,0.00041148824437467116,0.000426525268907863,0.0004434295243551424,0.00046453050369526426,0.0004917222907736731,0.0005274625915527779,0.0005726011157701778,0.0006262758289789876,0.0006857170807737891,0.0007457488241632609,0.0008019073802157571,0.0008494323232878813,0.0008848829116992062,0.0009069036578523138,0.0009154954399923805,0.0009148181362619699,0.0009097068375622366,0.0009050682968885328,0.0009044402118073859,0.0009081421373096538,0.0009147699050911917,0.0009199947912311544,0.0009178219506996238,0.0009019767657624583,0.0008670837397739893,0.00081095815304151,0.0007350874586348403,0.0006444791908253215,0.00054667783954654,0.0004498393531996347,0.00036195948426799595,0.00028864788715559264,0.00023221475535869308,0.00019137891333062169,0.0001614892510620748,0.00013685111963935252,0.00011137308223955415,8.055175663624141e-05,4.2741291223753584e-05,-6.68492582372123e-07,-4.431862074423586e-05,-8.116749923391323e-05,-0.00010374000716612427,-0.00010589633088311452,-8.475444701630289e-05,-4.015576512974553e-05,2.3936516216830762e-05,0.00010069603988431361,0.0001819114939709898,0.0,0.0,0.0,0.0,0.0,0.0,0.0,0.0,0.0,0.0,0.0,0.0,0.0,0.0,0.0,0.0,0.0,0.0,0.0,0.0,0.0,0.0,0.0,0.0,0.0,0.0,0.0,0.0,0.0,0.0,0.0,0.0,0.0,0.0,0.0,0.0,0.0,0.0,0.0,0.0,0.0,0.0,0.0,0.0,0.0,0.0,0.0,0.0,0.0,0.0,0.0,0.0,0.0,0.0,0.0,0.0,0.0,0.0,0.0,0.0,0.0,0.0,0.0,0.0,0.0,0.0,0.0,0.0,0.0,0.0,0.0,0.0,0.0,0.0,0.0,0.0,0.0,0.0,0.0,0.0,0.0,0.0,0.0,0.0,0.0,0.0,0.0,0.0,0.0,0.0,0.0,0.0,0.0,0.0,0.0,0.0,0.0,0.0,0.0,0.0,0.0,0.0,0.0,0.0,0.0,0.0,0.0,0.0,0.0,0.0,0.0,0.0,0.0,0.0,0.0,0.0,0.0,0.0,0.0,0.0,0.0,0.0,0.0,0.0,0.0,0.0,0.0,0.0,0.0,0.0,0.0,0.0,0.0,0.0,0.0,0.0,0.0,0.0,0.0,0.0,0.0,0.0,0.0,0.0,0.0,0.0,0.0,0.0,0.0,0.0,0.0,0.0,0.0,0.0,0.0,0.0,0.0,0.0,0.0,0.0,0.0,0.0,0.0,0.0,0.0,0.0,0.0,0.0,0.0,0.0,0.0,0.0,0.0,0.0,0.0,0.0,0.0,0.0,0.0,0.0,0.0,0.0,0.0,0.0,0.0,0.0,0.0,0.0,0.0,0.0,0.0,0.0,0.0,0.0,0.0,0.0,0.0,0.0,0.0,0.0,0.0,0.0,0.0,0.0,0.0,0.0,0.0,0.0,0.0,0.0,0.0,0.0,0.0,0.0,0.0,0.0,0.0,0.0,0.0,0.0,0.0,0.0,0.0,0.0,0.0,0.0,0.0,0.0,0.0,0.0,0.0,0.0,0.0,0.0,0.0,0.0,0.0,0.0,0.0
-0.3220978114463172,-0.3589599075506357,-0.36424280219758604,-0.3423339843181591,-0.30093129864055845,-0.24890218046831442,-0.19464927267248366,-0.1452926178595038,-0.10417791026946831,-0.07237908733166254,-0.04865744668487422,-0.03033863779433159,-0.014799326302315445,0.0011168644213881292,0.01905273362418208,0.039399648057831534,0.06147946822072095,0.08351209720410073,0.10457121970094006,0.12355603083143644,0.1398441169929555,0.15329757423577345,0.1636671291441034,0.17182406055134214,0.17819047731765073,0.18311253474499808,0.18693301071703017,0.1897069379330925,0.19283908528653262,0.19776025668868205,0.2063222531917922,0.22056844719828697,0.24188848813330635,0.27201172163533455,0.3111004094072292,0.35790229149106556,0.40970592239517006,0.46193842049023176,0.5108391819274213,0.5520696949936937,0.5821047381361563,0.5988433975920532,0.6010853142218384,0.5913317330951027,0.5726759846724079,0.5490106789398271,0.5242517430073942,0.5010599718734383,0.4819121516041201,0.4675243430173102,0.45729493177617225,0.4496600884227352,0.4424331928077507,0.43380920373750503,0.4228845185976447,0.40969425462675246,0.39506224754098695,0.3799960422301722,0.36598032513221135,0.354293416138645,0.3457358901530706,0.0,0.0,0.0,0.0,0.0,0.0,0.0,0.0,0.0,0.0,0.0,0.0,0.0,0.0,0.0,0.0,0.0,0.0,0.0,0.0,0.0,0.0,0.0,0.0,0.0,0.0,0.0,0.0,0.0,0.0,0.0,0.0,0.0,0.0,0.0,0.0,0.0,0.0,0.0,0.0,0.0,0.0,0.0,0.0,0.0,0.0,0.0,0.0,0.0,0.0,0.0,0.0,0.0,0.0,0.0,0.0,0.0,0.0,0.0,0.0,0.0,0.0,0.0,0.0,0.0,0.0,0.0,0.0,0.0,0.0,0.0,0.0,0.0,0.0,0.0,0.0,0.0,0.0,0.0,0.0,0.0,0.0,0.0,0.0,0.0,0.0,0.0,0.0,0.0,0.0,0.0,0.0,0.0,0.0,0.0,0.0,0.0,0.0,0.0,0.0,0.0,0.0,0.0,0.0,0.0,0.0,0.0,0.0,0.0,0.0,0.0,0.0,0.0,0.0,0.0,0.0,0.0,0.0,0.0,0.0,0.0,0.0,0.0,0.0,0.0,0.0,0.0,0.0,0.0,0.0,0.0,0.0,0.0,0.0,0.0,0.0,0.0,0.0,0.0,0.0,0.0,0.0,0.0,0.0,0.0,0.0,0.0,0.0,0.0,0.0,0.0,0.0,0.0,0.0,0.0,0.0,0.0,0.0,0.0,0.0,0.0,0.0,0.0,0.0,0.0,0.0,0.0,0.0,0.0,0.0,0.0,0.0,0.0,0.0,0.0,0.0,0.0,0.0,0.0,0.0,0.0,0.0,0.0,0.0,0.0,0.0,0.0,0.0,0.0,0.0,0.0,0.0,0.0,0.0,0.0,0.0,0.0,0.0,0.0,0.0,0.0,0.0,0.0,0.0,0.0,0.0,0.0,0.0,0.0,0.0,0.0,0.0,0.0,0.0,0.0,0.0,0.0,0.0,0.0,0.0,0.0,0.0,0.0,0.0,0.0,0.0,0.0,0.0,0.0,0.0,0.0,0.0,0.0,0.0,0.0,0.0,0.0,0.0,0.0,0.00035594059238533454,0.000367984230260601,0.0003765948578035468,0.00038161185968695516,0.0003833293694024032,0.0003825930225478862,0.00038056538297811604,0.00037804961892303195,0.00037665659489455496,0.0003777813400989078,0.000382825874883194,0.00039314653569563106,0.0004095226920699629,0.00043317285101283703,0.0004644329212325883,0.0005026651050323848,0.0005459630227359562,0.0005907993052130387,0.0006328997842395674,0.0006676503131594125,0.0006907204115102902,0.0006987795097762815,0.0006899957025387473,0.0006644909346994111,0.0006251210387656235,0.0005765682584949806,0.000524413710484561,0.0004738055596894365,0.00042910208747403675,0.00039322643010233,0.00036718090897367974,0.0003500479111928405,0.00033897439928313024,0.0003309900462087244,0.0003231040994548574,0.00031315580121994994,0.0003002780032453472,0.00028453244233043323,0.0002683856498807559,0.0002550185068030033,0.00024799864143077994,0.0002505080952978538,0.0002639670854371357,0.00028962340096188937,0.0003265136234630531,0.00037206350665959953,0.0004224210241050327,0.000472367753962364,0.0005179172850743943,0.0005551214821252074,0.0005811000070367256,0.0005943339529122117,0.0005941716096801823,0.000582545664896243,0.0005618927601508776,0.0005353279238445391,0.0005062355956717216,0.0004773158213551642,0.00045211043894937433,0.0004329552019238604,0.0004213974139509491,0.0,0.0,0.0,0.0,0.0,0.0,0.0,0.0,0.0,0.0,0.0,0.0,0.0,0.0,0.0,0.0,0.0,0.0,0.0,0.0,0.0,0.0,0.0,0.0,0.0,0.0,0.0,0.0,0.0,0.0,0.0,0.0,0.0,0.0,0.0,0.0,0.0,0.0,0.0,0.0,0.0,0.0,0.0,0.0,0.0,0.0,0.0,0.0,0.0,0.0,0.0,0.0,0.0,0.0,0.0,0.0,0.0,0.0,0.0,0.0,0.0,0.0,0.0,0.0,0.0,0.0,0.0,0.0,0.0,0.0,0.0,0.0,0.0,0.0,0.0,0.0,0.0,0.0,0.0,0.0,0.0,0.0,0.0,0.0,0.0,0.0,0.0,0.0,0.0,0.0,0.0,0.0,0.0,0.0,0.0,0.0,0.0,0.0,0.0,0.0,0.0,0.0,0.0,0.0,0.0,0.0,0.0,0.0,0.0,0.0,0.0,0.0,0.0,0.0,0.0,0.0,0.0,0.0,0.0,0.0,0.0,0.0,0.0,0.0,0.0,0.0,0.0,0.0,0.0,0.0,0.0,0.0,0.0,0.0,0.0,0.0,0.0,0.0,0.0,0.0,0.0,0.0,0.0,0.0,0.0,0.0,0.0,0.0,0.0,0.0,0.0,0.0,0.0,0.0,0.0,0.0,0.0,0.0,0.0,0.0,0.0,0.0,0.0,0.0,0.0,0.0,0.0,0.0,0.0,0.0,0.0,0.0,0.0,0.0,0.0,0.0,0.0,0.0,0.0,0.0,0.0,0.0,0.0,0.0,0.0,0.0,0.0,0.0,0.0,0.0,0.0,0.0,0.0,0.0,0.0,0.0,0.0,0.0,0.0,0.0,0.0,0.0,0.0,0.0,0.0,0.0,0.0,0.0,0.0,0.0,0.0,0.0,0.0,0.0,0.0,0.0,0.0,0.0,0.0,0.0,0.0,0.0,0.0,0.0,0.0,0.0,0.0,0.0,0.0,0.0,0.0,0.0,0.0,0.0,0.0,0.0,0.0,0.0,0.0
-0.13687895086170293,-0.08810209027427884,-0.028500994450067638,0.03450600883107276,0.09438998752285917,0.14657196288120336,0.18867115275853927,0.22070193340223637,0.24465622417673644,0.26370164637320315,0.281416057725426,0.3004387715477141,0.32209831789275734,0.34626347264799995,0.3713768675001443,0.39578505576855005,0.4174713591320243,0.43499178511348463,0.44787072111926335,0.4562493112464327,0.4620082545100084,0.46687490809945353,0.4723106922994437,0.4790729801756912,0.4864868001310959,0.4943268452741488,0.501458022129695,0.5068944239205637,0.5102752392321191,0.5114623661750164,0.5126116427179253,0.5156685522276243,0.5223236325608606,0.533241957756862,0.5466828921474658,0.5605864384029752,0.5704970349536768,0.5708921157912012,0.5562086762816051,0.5212178542008516,0.46475468768775374,0.3880382970583208,0.29552191515367315,0.19434320975162409,0.09287170336158489,0.00012010246614649063,-0.07663814677275556,-0.1328840282728533,-0.16752225677835686,-0.18259672710989128,-0.1832885272731498,-0.1758726043423451,-0.16645969664745802,-0.15962332762080583,-0.15755958742236761,-0.15945912203846616,-0.1621822264093126,-0.16116282267380141,-0.1517243984632548,-0.13081917660209835,-0.09658802367811065,0.0,0.0,0.0,0.0,0.0,0.0,0.0,0.0,0.0,0.0,0.0,0.0,0.0,0.0,0.0,0.0,0.0,0.0,0.0,0.0,0.0,0.0,0.0,0.0,0.0,0.0,0.0,0.0,0.0,0.0,0.0,0.0,0.0,0.0,0.0,0.0,0.0,0.0,0.0,0.0,0.0,0.0,0.0,0.0,0.0,0.0,0.0,0.0,0.0,0.0,0.0,0.0,0.0,0.0,0.0,0.0,0.0,0.0,0.0,0.0,0.0,0.0,0.0,0.0,0.0,0.0,0.0,0.0,0.0,0.0,0.0,0.0,0.0,0.0,0.0,0.0,0.0,0.0,0.0,0.0,0.0,0.0,0.0,0.0,0.0,0.0,0.0,0.0,0.0,0.0,0.0,0.0,0.0,0.0,0.0,0.0,0.0,0.0,0.0,0.0,0.0,0.0,0.0,0.0,0.0,0.0,0.0,0.0,0.0,0.0,0.0,0.0,0.0,0.0,0.0,0.0,0.0,0.0,0.0,0.0,0.0,0.0,0.0,0.0,0.0,0.0,0.0,0.0,0.0,0.0,0.0,0.0,0.0,0.0,0.0,0.0,0.0,0.0,0.0,0.0,0.0,0.0,0.0,0.0,0.0,0.0,0.0,0.0,0.0,0.0,0.0,0.0,0.0,0.0,0.0,0.0,0.0,0.0,0.0,0.0,0.0,0.0,0.0,0.0,0.0,0.0,0.0,0.0,0.0,0.0,0.0,0.0,0.0,0.0,0.0,0.0,0.0,0.0,0.0,0.0,0.0,0.0,0.0,0.0,0.0,0.0,0.0,0.0,0.0,0.0,0.0,0.0,0.0,0.0,0.0,0.0,0.0,0.0,0.0,0.0,0.0,0.0,0.0,0.0,0.0,0.0,0.0,0.0,0.0,0.0,0.0,0.0,0.0,0.0,0.0,0.0,0.0,0.0,0.0,0.0,0.0,0.0,0.0,0.0,0.0,0.0,0.0,0.0,0.0,0.0,0.0,0.0,0.0,0.0,0.0,0.0,0.0,0.0,0.0,0.0002349088430591361,0.00023124774672264275,0.00022574290479063106,0.0002203103653791031,0.00021583478725949895,0.00021326033394005494,0.0002124860239182821,0.0002130265880351418,0.0002142511608162421,0.00021510406672036898,0.00021587004398453024,0.00021618918753726871,0.00021582342082513304,0.0002147440984270473,0.00021269698484997117,0.00021093416088537997,0.00021021534913013884,0.00021137902930108574,0.0002152370360378525,0.0002218954401413173,0.00023236995136959344,0.0002465721712104507,0.00026383533208879475,0.00028295054728401386,0.00030184094125338854,0.0003193244349792644,0.0003338956080875912,0.00034448215691229117,0.0003506640585301753,0.0003523531469672989,0.00035097767361078237,0.0003480709439167948,0.00034521277106748163,0.0003435858326973358,0.000343308263306825,0.00034408519201976017,0.0003445747421181403,0.00034278961272321204,0.00033650760686449626,0.0003236078888262333,0.000303017391381463,0.00027491049188595965,0.00024078771110598953,0.00020325961826336036,0.00016511705715475982,0.0001301739868844658,0.0001015225114131934,8.12445241236181e-05,7.001162966222449e-05,6.620056911824358e-05,6.854858910854615e-05,7.457877665492148e-05,8.17895627797488e-05,8.821351162487965e-05,9.185855107954742e-05,9.377498606890706e-05,9.544191441956773e-05,9.896477344612022e-05,0.00010641539358753484,0.00011807706525261095,0.00013544697830692817,0.0,0.0,0.0,0.0,0.0,0.0,0.0,0.0,0.0,0.0,0.0,0.0,0.0,0.0,0.0,0.0,0.0,0.0,0.0,0.0,0.0,0.0,0.0,0.0,0.0,0.0,0.0,0.0,0.0,0.0,0.0,0.0,0.0,0.0,0.0,0.0,0.0,0.0,0.0,0.0,0.0,0.0,0.0,0.0,0.0,0.0,0.0,0.0,0.0,0.0,0.0,0.0,0.0,0.0,0.0,0.0,0.0,0.0,0.0,0.0,0.0,0.0,0.0,0.0,0.0,0.0,0.0,0.0,0.0,0.0,0.0,0.0,0.0,0.0,0.0,0.0,0.0,0.0,0.0,0.0,0.0,0.0,0.0,0.0,0.0,0.0,0.0,0.0,0.0,0.0,0.0,0.0,0.0,0.0,0.0,0.0,0.0,0.0,0.0,0.0,0.0,0.0,0.0,0.0,0.0,0.0,0.0,0.0,0.0,0.0,0.0,0.0,0.0,0.0,0.0,0.0,0.0,0.0,0.0,0.0,0.0,0.0,0.0,0.0,0.0,0.0,0.0,0.0,0.0,0.0,0.0,0.0,0.0,0.0,0.0,0.0,0.0,0.0,0.0,0.0,0.0,0.0,0.0,0.0,0.0,0.0,0.0,0.0,0.0,0.0,0.0,0.0,0.0,0.0,0.0,0.0,0.0,0.0,0.0,0.0,0.0,0.0,0.0,0.0,0.0,0.0,0.0,0.0,0.0,0.0,0.0,0.0,0.0,0.0,0.0,0.0,0.0,0.0,0.0,0.0,0.0,0.0,0.0,0.0,0.0,0.0,0.0,0.0,0.0,0.0,0.0,0.0,0.0,0.0,0.0,0.0,0.0,0.0,0.0,0.0,0.0,0.0,0.0,0.0,0.0,0.0,0.0,0.0,0.0,0.0,0.0,0.0,0.0,0.0,0.0,0.0,0.0,0.0,0.0,0.0,0.0,0.0,0.0,0.0,0.0,0.0,0.0,0.0,0.0,0.0,0.0,0.0,0.0,0.0,0.0,0.0,0.0,0.0,0.0
-0.1758726043423451,-0.16645969664745802,-0.15962332762080583,-0.15755958742236761,-0.15945912203846616,-0.1621822264093126,-0.16116282267380141,-0.1517243984632548,-0.13081917660209835,-0.09658802367811065,-0.05008566357374774,0.005354060584366376,0.06489425004821901,0.12269860409423786,0.1749728751597401,0.21900577904451957,0.2541172595393395,0.2815128985596928,0.30292702750546313,0.32218039822951305,0.3419698661408184,0.3638970916954485,0.3881628540326185,0.4128836465714502,0.4371853766659378,0.45941401408895005,0.4785784579731497,0.49481280950554424,0.5086053132926254,0.5232407071053508,0.5414420481822404,0.565253089105449,0.5951148528299428,0.6283043612013175,0.6615683471498313,0.6887307851833102,0.7024275521959162,0.6954168961543413,0.6611467935247775,0.5980274414251009,0.5075076230937364,0.3951704220721366,0.2701999784519344,0.14376035880312923,0.02847686225193444,-0.06456125547238052,-0.12713006262227733,-0.15501693925047264,-0.14830727714576233,-0.11158527644075619,-0.05237385782613834,0.02009649128656544,0.0964709100270465,0.1690283819005185,0.23180753786994654,0.28205897701254934,0.3199421242963552,0.3479587593045656,0.3704492123163038,0.39107522401934186,0.4130161306096888,0.0,0.0,0.0,0.0,0.0,0.0,0.0,0.0,0.0,0.0,0.0,0.0,0.0,0.0,0.0,0.0,0.0,0.0,0.0,0.0,0.0,0.0,0.0,0.0,0.0,0.0,0.0,0.0,0.0,0.0,0.0,0.0,0.0,0.0,0.0,0.0,0.0,0.0,0.0,0.0,0.0,0.0,0.0,0.0,0.0,0.0,0.0,0.0,0.0,0.0,0.0,0.0,0.0,0.0,0.0,0.0,0.0,0.0,0.0,0.0,0.0,0.0,0.0,0.0,0.0,0.0,0.0,0.0,0.0,0.0,0.0,0.0,0.0,0.0,0.0,0.0,0.0,0.0,0.0,0.0,0.0,0.0,0.0,0.0,0.0,0.0,0.0,0.0,0.0,0.0,0.0,0.0,0.0,0.0,0.0,0.0,0.0,0.0,0.0,0.0,0.0,0.0,0.0,0.0,0.0,0.0,0.0,0.0,0.0,0.0,0.0,0.0,0.0,0.0,0.0,0.0,0.0,0.0,0.0,0.0,0.0,0.0,0.0,0.0,0.0,0.0,0.0,0.0,0.0,0.0,0.0,0.0,0.0,0.0,0.0,0.0,0.0,0.0,0.0,0.0,0.0,0.0,0.0,0.0,0.0,0.0,0.0,0.0,0.0,0.0,0.0,0.0,0.0,0.0,0.0,0.0,0.0,0.0,0.0,0.0,0.0,0.0,0.0,0.0,0.0,0.0,0.0,0.0,0.0,0.0,0.0,0.0,0.0,0.0,0.0,0.0,0.0,0.0,0.0,0.0,0.0,0.0,0.0,0.0,0.0,0.0,0.0,0.0,0.0,0.0,0.0,0.0,0.0,0.0,0.0,0.0,0.0,0.0,0.0,0.0,0.0,0.0,0.0,0.0,0.0,0.0,0.0,0.0,0.0,0.0,0.0,0.0,0.0,0.0,0.0,0.0,0.0,0.0,0.0,0.0,0.0,0.0,0.0,0.0,0.0,0.0,0.0,0.0,0.0,0.0,0.0,0.0,0.0,0.0,0.0,0.0,0.0,0.0,0.0,7.457877665492148e-05,8.17895627797488e-05,8.821351162487965e-05,9.185855107954742e-05,9.377498606890706e-05,9.544191441956773e-05,9.896477344612022e-05,0.00010641539358753484,0.00011807706525261095,0.00013544697830692817,0.000158260519906122,0.00018531680186986368,0.0002146968264605083,0.00024323775326907544,0.0002695454990027446,0.0002920862294950032,0.00030997371245471974,0.00032297825933348174,0.00033083287772298444,0.00033492677282133567,0.0003364889829878766,0.00033684958527746024,0.00033721867467004707,0.00033801572658853673,0.00034018769821086845,0.00034366836319456084,0.00034780497135503786,0.0003514590900066124,0.00035289010678409574,0.00035118870714717616,0.00034539817790511465,0.00033528445243567414,0.0003216184743769789,0.00030594935525756845,0.0002916225113494665,0.00028217968797892754,0.0002812233913668899,0.0002917778587473453,0.00031531849491618565,0.00035243993945436377,0.00040140618773907845,0.00045872910729435553,0.0005197382497974491,0.0005790141258455436,0.000632797475759761,0.000678619690917115,0.0007162425849782854,0.0007476986408475527,0.0007762109401910516,0.0008068086476614714,0.0008436903002543402,0.0008892365828301124,0.0009430013137178754,0.0010006465819562289,0.0010564607177096805,0.0011027995050964011,0.001132067279469019,0.001138303986588198,0.0011176297596976223,0.0010714983195345292,0.0010045516298732868,0.0,0.0,0.0,0.0,0.0,0.0,0.0,0.0,0.0,0.0,0.0,0.0,0.0,0.0,0.0,0.0,0.0,0.0,0.0,0.0,0.0,0.0,0.0,0.0,0.0,0.0,0.0,0.0,0.0,0.0,0.0,0.0,0.0,0.0,0.0,0.0,0.0,0.0,0.0,0.0,0.0,0.0,0.0,0.0,0.0,0.0,0.0,0.0,0.0,0.0,0.0,0.0,0.0,0.0,0.0,0.0,0.0,0.0,0.0,0.0,0.0,0.0,0.0,0.0,0.0,0.0,0.0,0.0,0.0,0.0,0.0,0.0,0.0,0.0,0.0,0.0,0.0,0.0,0.0,0.0,0.0,0.0,0.0,0.0,0.0,0.0,0.0,0.0,0.0,0.0,0.0,0.0,0.0,0.0,0.0,0.0,0.0,0.0,0.0,0.0,0.0,0.0,0.0,0.0,0.0,0.0,0.0,0.0,0.0,0.0,0.0,0.0,0.0,0.0,0.0,0.0,0.0,0.0,0.0,0.0,0.0,0.0,0.0,0.0,0.0,0.0,0.0,0.0,0.0,0.0,0.0,0.0,0.0,0.0,0.0,0.0,0.0,0.0,0.0,0.0,0.0,0.0,0.0,0.0,0.0,0.0,0.0,0.0,0.0,0.0,0.0,0.0,0.0,0.0,0.0,0.0,0.0,0.0,0.0,0.0,0.0,0.0,0.0,0.0,0.0,0.0,0.0,0.0,0.0,0.0,0.0,0.0,0.0,0.0,0.0,0.0,0.0,0.0,0.0,0.0,0.0,0.0,0.0,0.0,0.0,0.0,0.0,0.0,0.0,0.0,0.0,0.0,0.0,0.0,0.0,0.0,0.0,0.0,0.0,0.0,0.0,0.0,0.0,0.0,0.0,0.0,0.0,0.0,0.0,0.0,0.0,0.0,0.0,0.0,0.0,0.0,0.0,0.0,0.0,0.0,0.0,0.0,0.0,0.0,0.0,0.0,0.0,0.0,0.0,0.0,0.0,0.0,0.0,0.0,0.0,0.0,0.0,0.0,0.0
0.02009649128656544,0.0964709100270465,0.1690283819005185,0.23180753786994654,0.28205897701254934,0.3199421242963552,0.3479587593045656,0.3704492123163038,0.39107522401934186,0.4130161306096888,0.4379318775081738,0.46575233974543984,0.4950027971119421,0.523351901187671,0.5484400638009373,0.5686448850074035,0.583545920186314,0.5936225309001707,0.6010895849030995,0.6080611362031011,0.6162317088138959,0.626337327524247,0.6373899078592753,0.648692884459717,0.6585607811943505,0.6655621041144563,0.6691287348621799,0.6691150803345162,0.6681542161560775,0.6687124507290886,0.6729779975026052,0.6819305468412034,0.6935987152988949,0.7059953965984833,0.714275447250416,0.7124799192054113,0.6947323588202267,0.6553197511628406,0.5938650711172746,0.5122001721711283,0.4154635949079709,0.3112866587815117,0.20793073919606947,0.11388504864448991,0.0349147863987301,-0.026639944059650755,-0.07215904125720332,-0.1057378076321683,-0.13416880102553702,-0.16400432725042421,-0.20007797111463285,-0.2440922209696654,-0.2940977102266506,-0.34432143416701255,-0.3867946970979993,-0.4130285899431421,-0.4160254006821274,-0.39268082974561447,-0.34254397563148914,-0.2698995868855251,-0.18225728304035582,0.0,0.0,0.0,0.0,0.0,0.0,0.0,0.0,0.0,0.0,0.0,0.0,0.0,0.0,0.0,0.0,0.0,0.0,0.0,0.0,0.0,0.0,0.0,0.0,0.0,0.0,0.0,0.0,0.0,0.0,0.0,0.0,0.0,0.0,0.0,0.0,0.0,0.0,0.0,0.0,0.0,0.0,0.0,0.0,0.0,0.0,0.0,0.0,0.0,0.0,0.0,0.0,0.0,0.0,0.0,0.0,0.0,0.0,0.0,0.0,0.0,0.0,0.0,0.0,0.0,0.0,0.0,0.0,0.0,0.0,0.0,0.0,0.0,0.0,0.0,0.0,0.0,0.0,0.0,0.0,0.0,0.0,0.0,0.0,0.0,0.0,0.0,0.0,0.0,0.0,0.0,0.0,0.0,0.0,0.0,0.0,0.0,0.0,0.0,0.0,0.0,0.0,0.0,0.0,0.0,0.0,0.0,0.0,0.0,0.0,0.0,0.0,0.0,0.0,0.0,0.0,0.0,0.0,0.0,0.0,0.0,0.0,0.0,0.0,0.0,0.0,0.0,0.0,0.0,0.0,0.0,0.0,0.0,0.0,0.0,0.0,0.0,0.0,0.0,0.0,0.0,0.0,0.0,0.0,0.0,0.0,0.0,0.0,0.0,0.0,0.0,0.0,0.0,0.0,0.0,0.0,0.0,0.0,0.0,0.0,0.0,0.0,0.0,0.0,0.0,0.0,0.0,0.0,0.0,0.0,0.0,0.0,0.0,0.0,0.0,0.0,0.0,0.0,0.0,0.0,0.0,0.0,0.0,0.0,0.0,0.0,0.0,0.0,0.0,0.0,0.0,0.0,0.0,0.0,0.0,0.0,0.0,0.0,0.0,0.0,0.0,0.0,0.0,0.0,0.0,0.0,0.0,0.0,0.0,0.0,0.0,0.0,0.0,0.0,0.0,0.0,0.0,0.0,0.0,0.0,0.0,0.0,0.0,0.0,0.0,0.0,0.0,0.0,0.0,0.0,0.0,0.0,0.0,0.0,0.0,0.0,0.0,0.0,0.0,0.0008892365828301124,0.0009430013137178754,0.0010006465819562289,0.0010564607177096805,0.0011027995050964011,0.001132067279469019,0.001138303986588198,0.0011176297596976223,0.0010714983195345292,0.0010045516298732868,0.00092422851874314,0.0008392093014682898,0.0007571538428537876,0.0006846605643162818,0.000624876278276264,0.0005776619906326208,0.0005401146163483814,0.0005075514590535351,0.00047538831636787914,0.0004397308928275217,0.00039863062971017606,0.0003525194725581478,0.00030397356570890206,0.00025720584721790053,0.00021643925590443037,0.00018507908817644238,0.00016492432876791426,0.0001558568710507929,0.0001559638483153141,0.00016174344713935693,0.00016925102939507072,0.00017517783670425373,0.00017767639054447123,0.00017722748542019052,0.0001759631646848055,0.00017737941465002034,0.00018543134464059312,0.00020325049989526923,0.00023292838745786156,0.0002740208414404253,0.0003238049601761129,0.00037782843765741826,0.0004306135738117683,0.00047804980577919237,0.0005171099589507438,0.0005471679631856139,0.0005702255306742433,0.0005900133544894303,0.0006124263887987843,0.0006420419081394717,0.000681393968260589,0.0007299487879158219,0.0007831819638283025,0.0008349564192405599,0.0008760936172193411,0.0008970052160529307,0.0008896720451574006,0.000848729029170139,0.0007750285904004787,0.0006728003773927528,0.0005501840714162996,0.0,0.0,0.0,0.0,0.0,0.0,0.0,0.0,0.0,0.0,0.0,0.0,0.0,0.0,0.0,0.0,0.0,0.0,0.0,0.0,0.0,0.0,0.0,0.0,0.0,0.0,0.0,0.0,0.0,0.0,0.0,0.0,0.0,0.0,0.0,0.0,0.0,0.0,0.0,0.0,0.0,0.0,0.0,0.0,0.0,0.0,0.0,0.0,0.0,0.0,0.0,0.0,0.0,0.0,0.0,0.0,0.0,0.0,0.0,0.0,0.0,0.0,0.0,0.0,0.0,0.0,0.0,0.0,0.0,0.0,0.0,0.0,0.0,0.0,0.0,0.0,0.0,0.0,0.0,0.0,0.0,0.0,0.0,0.0,0.0,0.0,0.0,0.0,0.0,0.0,0.0,0.0,0.0,0.0,0.0,0.0,0.0,0.0,0.0,0.0,0.0,0.0,0.0,0.0,0.0,0.0,0.0,0.0,0.0,0.0,0.0,0.0,0.0,0.0,0.0,0.0,0.0,0.0,0.0,0.0,0.0,0.0,0.0,0.0,0.0,0.0,0.0,0.0,0.0,0.0,0.0,0.0,0.0,0.0,0.0,0.0,0.0,0.0,0.0,0.0,0.0,0.0,0.0,0.0,0.0,0.0,0.0,0.0,0.0,0.0,0.0,0.0,0.0,0.0,0.0,0.0,0.0,0.0,0.0,0.0,0.0,0.0,0.0,0.0,0.0,0.0,0.0,0.0,0.0,0.0,0.0,0.0,0.0,0.0,0.0,0.0,0.0,0.0,0.0,0.0,0.0,0.0,0.0,0.0,0.0,0.0,0.0,0.0,0.0,0.0,0.0,0.0,0.0,0.0,0.0,0.0,0.0,0.0,0.0,0.0,0.0,0.0,0.0,0.0,0.0,0.0,0.0,0.0,0.0,0.0,0.0,0.0,0.0,0.0,0.0,0.0,0.0,0.0,0.0,0.0,0.0,0.0,0.0,0.0,0.0,0.0,0.0,0.0,0.0,0.0,0.0,0.0,0.0,0.0,0.0,0.0,0.0,0.0,0.0
-0.2440922209696654,-0.2940977102266506,-0.34432143416701255,-0.3867946970979993,-0.4130285899431421,-0.4160254006821274,-0.39268082974561447,-0.34254397563148914,-0.2698995868855251,-0.18225728304035582,-0.08877316275827965,0.0006661021011251061,0.08013235541219574,0.14597633967144077,0.19791876724335367,0.2384790751655681,0.27060458513075314,0.30004190524199503,0.3305518803801591,0.3640991593227665,0.4006126203727225,0.43723719664649857,0.47284539102589634,0.5056578429010321,0.535192458881174,0.5627461655798769,0.5901960710799768,0.6227679883108498,0.6644537711150811,0.7176188483926482,0.7816983410806566,0.8512195461289994,0.9193561356443332,0.9751645206372106,1.0062034218013083,1.0006505165814363,0.9484227483925024,0.8470566378688246,0.6994086948566146,0.515070579652209,0.30948725874358884,0.10105674272970125,-0.08875507883487736,-0.2409642979465884,-0.3411779242722689,-0.3816759990942586,-0.3630138883295565,-0.29177768544087623,-0.1804321814873491,-0.04471336504755919,0.09898851671288278,0.23562397820028727,0.3548493461104423,0.4513380501222063,0.5249291348624128,0.5796530325200242,0.62172217948895,0.6585039807896961,0.6964954792614451,0.7398294912615708,0.7894750723483166,0.0,0.0,0.0,0.0,0.0,0.0,0.0,0.0,0.0,0.0,0.0,0.0,0.0,0.0,0.0,0.0,0.0,0.0,0.0,0.0,0.0,0.0,0.0,0.0,0.0,0.0,0.0,0.0,0.0,0.0,0.0,0.0,0.0,0.0,0.0,0.0,0.0,0.0,0.0,0.0,0.0,0.0,0.0,0.0,0.0,0.0,0.0,0.0,0.0,0.0,0.0,0.0,0.0,0.0,0.0,0.0,0.0,0.0,0.0,0.0,0.0,0.0,0.0,0.0,0.0,0.0,0.0,0.0,0.0,0.0,0.0,0.0,0.0,0.0,0.0,0.0,0.0,0.0,0.0,0.0,0.0,0.0,0.0,0.0,0.0,0.0,0.0,0.0,0.0,0.0,0.0,0.0,0.0,0.0,0.0,0.0,0.0,0.0,0.0,0.0,0.0,0.0,0.0,0.0,0.0,0.0,0.0,0.0,0.0,0.0,0.0,0.0,0.0,0.0,0.0,0.0,0.0,0.0,0.0,0.0,0.0,0.0,0.0,0.0,0.0,0.0,0.0,0.0,0.0,0.0,0.0,0.0,0.0,0.0,0.0,0.0,0.0,0.0,0.0,0.0,0.0,0.0,0.0,0.0,0.0,0.0,0.0,0.0,0.0,0.0,0.0,0.0,0.0,0.0,0.0,0.0,0.0,0.0,0.0,0.0,0.0,0.0,0.0,0.0,0.0,0.0,0.0,0.0,0.0,0.0,0.0,0.0,0.0,0.0,0.0,0.0,0.0,0.0,0.0,0.0,0.0,0.0,0.0,0.0,0.0,0.0,0.0,0.0,0.0,0.0,0.0,0.0,0.0,0.0,0.0,0.0,0.0,0.0,0.0,0.0,0.0,0.0,0.0,0.0,0.0,0.0,0.0,0.0,0.0,0.0,0.0,0.0,0.0,0.0,0.0,0.0,0.0,0.0,0.0,0.0,0.0,0.0,0.0,0.0,0.0,0.0,0.0,0.0,0.0,0.0,0.0,0.0,0.0,0.0,0.0,0.0,0.0,0.0,0.0,0.0007299487879158219,0.0007831819638283025,0.0008349564192405599,0.0008760936172193411,0.0008970052160529307,0.0008896720451574006,0.000848729029170139,0.0007750285904004787,0.0006728003773927528,0.0005501840714162996,0.000417952092750301,0.00028724846250897295,0.00016932703078734724,7.162278244332735e-05,-2.4780254473070824e-06,-5.376785965679861e-05,-8.676980334317427e-05,-0.0001074303427446598,-0.0001227940047449087,-0.0001388542070866637,-0.00015923918126367989,-0.00018467612759933167,-0.00021257157917707286,-0.0002385827139084572,-0.0002575290794713053,-0.00026471050287056114,-0.0002570518527238016,-0.00023375812750416598,-0.0001967154561327824,-0.00014996855874470442,-9.885637831053118e-05,-4.8964447923797196e-05,-4.984612637793697e-06,2.9729438245385812e-05,5.364322042309966e-05,6.69977462494988e-05,7.138490460431247e-05,6.935204364602764e-05,6.343741862226542e-05,5.5836547018001613e-05,4.8153384732057286e-05,4.110159137793858e-05,3.558942358782407e-05,3.1778391881450806e-05,2.9680979988790276e-05,2.930902321461577e-05,3.021962539226779e-05,3.318663626688874e-05,3.81670822761502e-05,4.486619395526011e-05,5.271727062696952e-05,6.025686135536031e-05,6.74206315272773e-05,7.314389367258683e-05,7.634579464952349e-05,7.612551803932328e-05,7.113928418058016e-05,6.246704208069637e-05,5.0596323724939075e-05,3.642558121476933e-05,2.118366587447838e-05,0.0,0.0,0.0,0.0,0.0,0.0,0.0,0.0,0.0,0.0,0.0,0.0,0.0,0.0,0.0,0.0,0.0,0.0,0.0,0.0,0.0,0.0,0.0,0.0,0.0,0.0,0.0,0.0,0.0,0.0,0.0,0.0,0.0,0.0,0.0,0.0,0.0,0.0,0.0,0.0,0.0,0.0,0.0,0.0,0.0,0.0,0.0,0.0,0.0,0.0,0.0,0.0,0.0,0.0,0.0,0.0,0.0,0.0,0.0,0.0,0.0,0.0,0.0,0.0,0.0,0.0,0.0,0.0,0.0,0.0,0.0,0.0,0.0,0.0,0.0,0.0,0.0,0.0,0.0,0.0,0.0,0.0,0.0,0.0,0.0,0.0,0.0,0.0,0.0,0.0,0.0,0.0,0.0,0.0,0.0,0.0,0.0,0.0,0.0,0.0,0.0,0.0,0.0,0.0,0.0,0.0,0.0,0.0,0.0,0.0,0.0,0.0,0.0,0.0,0.0,0.0,0.0,0.0,0.0,0.0,0.0,0.0,0.0,0.0,0.0,0.0,0.0,0.0,0.0,0.0,0.0,0.0,0.0,0.0,0.0,0.0,0.0,0.0,0.0,0.0,0.0,0.0,0.0,0.0,0.0,0.0,0.0,0.0,0.0,0.0,0.0,0.0,0.0,0.0,0.0,0.0,0.0,0.0,0.0,0.0,0.0,0.0,0.0,0.0,0.0,0.0,0.0,0.0,0.0,0.0,0.0,0.0,0.0,0.0,0.0,0.0,0.0,0.0,0.0,0.0,0.0,0.0,0.0,0.0,0.0,0.0,0.0,0.0,0.0,0.0,0.0,0.0,0.0,0.0,0.0,0.0,0.0,0.0,0.0,0.0,0.0,0.0,0.0,0.0,0.0,0.0,0.0,0.0,0.0,0.0,0.0,0.0,0.0,0.0,0.0,0.0,0.0,0.0,0.0,0.0,0.0,0.0,0.0,0.0,0.0,0.0,0.0,0.0,0.0,0.0,0.0,0.0,0.0,0.0,0.0,0.0,0.0,0.0,0.0
0.23562397820028727,0.3548493461104423,0.4513380501222063,0.5249291348624128,0.5796530325200242,0.62172217948895,0.6585039807896961,0.6964954792614451,0.7398294912615708,0.7894750723483166,0.8427451735269696,0.8954663013195687,0.9422451742944921,0.9780411672109183,0.9992971121766091,1.004012656185571,0.9938524792021797,0.9720350463148342,0.9430526580122314,0.9117087259946532,0.8815216447145297,0.8563940578073028,0.8382075588316358,0.8275676871316205,0.8241203398126974,0.826145128468144,0.83348209655608,0.8451112088012943,0.859956122058451,0.8767750998829724,0.8930136995587901,0.9081427750651718,0.9203569948575784,0.9279050324967778,0.9294298599532476,0.9230194241258427,0.9105141599155616,0.8932313936456789,0.8730685483035404,0.8521250884401237,0.8314614857148244,0.813160563865955,0.7978718802819433,0.7853932256440046,0.7748203169269997,0.764535920246361,0.753379781923578,0.7407939987231255,0.7268564941987091,0.7121417593785152,0.6969437092451571,0.6825437976551648,0.6696748096910049,0.6586875414431425,0.6494632018300308,0.640747363472904,0.6326316235174562,0.6243741733556921,0.6154087312718771,0.6055458492658813,0.5942582077362106,0.0,0.0,0.0,0.0,0.0,0.0,0.0,0.0,0.0,0.0,0.0,0.0,0.0,0.0,0.0,0.0,0.0,0.0,0.0,0.0,0.0,0.0,0.0,0.0,0.0,0.0,0.0,0.0,0.0,0.0,0.0,0.0,0.0,0.0,0.0,0.0,0.0,0.0,0.0,0.0,0.0,0.0,0.0,0.0,0.0,0.0,0.0,0.0,0.0,0.0,0.0,0.0,0.0,0.0,0.0,0.0,0.0,0.0,0.0,0.0,0.0,0.0,0.0,0.0,0.0,0.0,0.0,0.0,0.0,0.0,0.0,0.0,0.0,0.0,0.0,0.0,0.0,0.0,0.0,0.0,0.0,0.0,0.0,0.0,0.0,0.0,0.0,0.0,0.0,0.0,0.0,0.0,0.0,0.0,0.0,0.0,0.0,0.0,0.0,0.0,0.0,0.0,0.0,0.0,0.0,0.0,0.0,0.0,0.0,0.0,0.0,0.0,0.0,0.0,0.0,0.0,0.0,0.0,0.0,0.0,0.0,0.0,0.0,0.0,0.0,0.0,0.0,0.0,0.0,0.0,0.0,0.0,0.0,0.0,0.0,0.0,0.0,0.0,0.0,0.0,0.0,0.0,0.0,0.0,0.0,0.0,0.0,0.0,0.0,0.0,0.0,0.0,0.0,0.0,0.0,0.0,0.0,0.0,0.0,0.0,0.0,0.0,0.0,0.0,0.0,0.0,0.0,0.0,0.0,0.0,0.0,0.0,0.0,0.0,0.0,0.0,0.0,0.0,0.0,0.0,0.0,0.0,0.0,0.0,0.0,0.0,0.0,0.0,0.0,0.0,0.0,0.0,0.0,0.0,0.0,0.0,0.0,0.0,0.0,0.0,0.0,0.0,0.0,0.0,0.0,0.0,0.0,0.0,0.0,0.0,0.0,0.0,0.0,0.0,0.0,0.0,0.0,0.0,0.0,0.0,0.0,0.0,0.0,0.0,0.0,0.0,0.0,0.0,0.0,0.0,0.0,0.0,0.0,0.0,0.0,0.0,0.0,0.0,0.0,6.025686135536031e-05,6.74206315272773e-05,7.314389367258683e-05,7.634579464952349e-05,7.612551803932328e-05,7.113928418058016e-05,6.246704208069637e-05,5.0596323724939075e-05,3.642558121476933e-05,2.118366587447838e-05,5.297762500305623e-06,-8.930415291014369e-06,-2.035451378359149e-05,-2.8502635626312478e-05,-3.375818629036652e-05,-3.839360477610657e-05,-4.310315055681554e-05,-4.891369401812095e-05,-5.6284197287047523e-05,-6.499027743757029e-05,-7.51097050191338e-05,-8.474673794008644e-05,-9.221663490063581e-05,-9.61960776418915e-05,-9.622236858477406e-05,-9.36240148224767e-05,-8.944930465604366e-05,-8.521180176002185e-05,-8.216622299144783e-05,-8.08997932439007e-05,-8.183969338781282e-05,-8.313145649529094e-05,-8.245693929408808e-05,-7.728180549843432e-05,-6.557721790302735e-05,-4.719270930206991e-05,-2.1796537734566293e-05,9.358683452034944e-06,4.424606999938668e-05,8.052449133625179e-05,0.00011530642975723979,0.00014761070272739885,0.000176846866454749,0.00020307343863646063,0.00022662620057553088,0.0002470979833887456,0.00026494659261310047,0.0002800360811497603,0.00029219335369427325,0.000301555887177077,0.00030838685952641826,0.00031526291286829654,0.00032574989777526956,0.0003444893159052973,0.00037648557377862327,0.0004254972410532675,0.0004947250280431846,0.0005843985906542656,0.0006915371729258799,0.0008098829956755124,0.0009299173098869407,0.0,0.0,0.0,0.0,0.0,0.0,0.0,0.0,0.0,0.0,0.0,0.0,0.0,0.0,0.0,0.0,0.0,0.0,0.0,0.0,0.0,0.0,0.0,0.0,0.0,0.0,0.0,0.0,0.0,0.0,0.0,0.0,0.0,0.0,0.0,0.0,0.0,0.0,0.0,0.0,0.0,0.0,0.0,0.0,0.0,0.0,0.0,0.0,0.0,0.0,0.0,0.0,0.0,0.0,0.0,0.0,0.0,0.0,0.0,0.0,0.0,0.0,0.0,0.0,0.0,0.0,0.0,0.0,0.0,0.0,0.0,0.0,0.0,0.0,0.0,0.0,0.0,0.0,0.0,0.0,0.0,0.0,0.0,0.0,0.0,0.0,0.0,0.0,0.0,0.0,0.0,0.0,0.0,0.0,0.0,0.0,0.0,0.0,0.0,0.0,0.0,0.0,0.0,0.0,0.0,0.0,0.0,0.0,0.0,0.0,0.0,0.0,0.0,0.0,0.0,0.0,0.0,0.0,0.0,0.0,0.0,0.0,0.0,0.0,0.0,0.0,0.0,0.0,0.0,0.0,0.0,0.0,0.0,0.0,0.0,0.0,0.0,0.0,0.0,0.0,0.0,0.0,0.0,0.0,0.0,0.0,0.0,0.0,0.0,0.0,0.0,0.0,0.0,0.0,0.0,0.0,0.0,0.0,0.0,0.0,0.0,0.0,0.0,0.0,0.0,0.0,0.0,0.0,0.0,0.0,0.0,0.0,0.0,0.0,0.0,0.0,0.0,0.0,0.0,0.0,0.0,0.0,0.0,0.0,0.0,0.0,0.0,0.0,0.0,0.0,0.0,0.0,0.0,0.0,0.0,0.0,0.0,0.0,0.0,0.0,0.0,0.0,0.0,0.0,0.0,0.0,0.0,0.0,0.0,0.0,0.0,0.0,0.0,0.0,0.0,0.0,0.0,0.0,0.0,0.0,0.0,0.0,0.0,0.0,0.0,0.0,0.0,0.0,0.0,0.0,0.0,0.0,0.0,0.0,0.0,0.0,0.0,0.0,0.0
0.34578312071135375,0.344080360857414,0.33337530533322135,0.3158979110824512,0.294440344416295,0.27185959612760424,0.2502227177962702,0.23166852942400062,0.21699296902034684,0.20604607516469006,0.19793607154385476,0.1910871557709449,0.18449571846514967,0.17716942465067942,0.1686244036667,0.15895692312921694,0.1485215833676437,0.13851703495783932,0.12994896610176568,0.12362499651073737,0.11997777471457909,0.11878064947670132,0.11986912186610993,0.12259656847395055,0.12620982860234514,0.13001354794745607,0.1332975121504691,0.13598285334992746,0.13799291061873334,0.13934602892679374,0.1400493211803331,0.13985383554108868,0.13876013851063992,0.1365531733110539,0.1330812403665933,0.12841232462411176,0.1228077519452941,0.11735618881938367,0.1134253187025663,0.11267161633711383,0.11677532806789044,0.12692354173770204,0.14404351511876493,0.16799934893438756,0.19761822484755828,0.23073784144632634,0.26411230372472744,0.29489047347570574,0.32003666948935616,0.3371241561838326,0.3447003548247622,0.3419953775879393,0.33050490428923546,0.3122034497145443,0.2896811514825301,0.2657066411258541,0.2423035638990067,0.22193287622419666,0.20579646884229674,0.19421311479733663,0.186712927426946,0.18178414392051206,0.17867526609181264,0.17633811498147675,0.17403021714226874,0.1713941050474978,0.16812032531040716,0.16472559969272307,0.16150394558301118,0.1586310953048661,0.15607528266804954,0.15349976445112193,0.15068308162985997,0.14726869698698508,0.14304872436261132,0.13808254842161083,0.13255494461796466,0.12730616244625456,0.12309178579339541,0.12056619187339006,0.12008981417517209,0.0,0.0,0.0,0.0,0.0,0.0,0.0,0.0,0.0,0.0,0.0,0.0,0.0,0.0,0.0,0.0,0.0,0.0,0.0,0.0,0.0,0.0,0.0,0.0,0.0,0.0,0.0,0.0,0.0,0.0,0.0,0.0,0.0,0.0,0.0,0.0,0.0,0.0,0.0,0.0,0.0,0.0,0.0,0.0,0.0,0.0,0.0,0.0,0.0,0.0,0.0,0.0,0.0,0.0,0.0,0.0,0.0,0.0,0.0,0.0,0.0,0.0,0.0,0.0,0.0,0.0,0.0,0.0,0.0,0.0,0.0,0.0,0.0,0.0,0.0,0.0,0.0,0.0,0.0,0.0,0.0,0.0,0.0,0.0,0.0,0.0,0.0,0.0,0.0,0.0,0.0,0.0,0.0,0.0,0.0,0.0,0.0,0.0,0.0,0.0,0.0,0.0,0.0,0.0,0.0,0.0,0.0,0.0,0.0,0.0,0.0,0.0,0.0,0.0,0.0,0.0,0.0,0.0,0.0,0.0,0.0,0.0,0.0,0.0,0.0,0.0,0.0,0.0,0.0,0.0,0.0,0.0,0.0,0.0,0.0,0.0,0.0,0.0,0.0,0.0,0.0,0.0,0.0,0.0,0.0,0.0,0.0,0.0,0.0,0.0,0.0,0.0,0.0,0.0,0.0,0.0,0.0,0.0,0.0,0.0,0.0,0.0,0.0,0.0,0.0,0.0,0.0,0.0,0.0,0.0,0.0,0.0,0.0,0.0,0.0,0.0,0.0,0.0,0.0,0.0,0.0,0.0,0.0,0.0,0.0,0.0,0.0,0.0,0.0,0.0,0.0,0.0,0.0,0.0,0.0,0.0,0.0,0.0,0.0,0.0,0.0,0.0,0.0,0.0,0.0,0.0,0.0,0.0,0.0,0.0,0.0,0.0,0.0,0.0,0.0,0.0,0.0,0.0,0.0,0.0004572774417360298,0.00044311119408289076,0.00042807005425493915,0.00041169676565007364,0.0003939883914830621,0.0003753953813467294,0.0003563127202324432,0.00033823513651776437,0.0003217102755037693,0.0003068766233119257,0.00029351332095742895,0.00028091202737471824,0.00026905326603595737,0.0002574815950902903,0.0002458877885428992,0.0002341762524111994,0.00022217205652638467,0.00021041080984791636,0.0001988663880887256,0.00018721755646923998,0.0001748391838649698,0.00016066098667651566,0.00014420058271195164,0.00012489087121557972,0.00010265489831078188,7.810275087650547e-05,5.2245560976299164e-05,2.752288443024472e-05,6.170544592888325e-06,-9.728228593812832e-06,-1.8633682111958875e-05,-2.0287784511629346e-05,-1.437540284165578e-05,-2.199807649745704e-06,1.4161689634715986e-05,3.227061526180445e-05,4.946361385850251e-05,6.43110255210641e-05,7.534615341833712e-05,8.170974486225147e-05,8.317491263556776e-05,7.991458803877025e-05,7.30969098671324e-05,6.350032954066574e-05,5.194978061102139e-05,3.935166255784708e-05,2.6673907113274825e-05,1.528142777601304e-05,5.974993091243013e-06,-7.002277075224163e-07,-4.471587519873607e-06,-5.281982335898379e-06,-3.285158813216587e-06,7.013487801951997e-07,5.6259463480747225e-06,1.047526826722244e-05,1.4546295239675282e-05,1.777374355523771e-05,2.0273403785788694e-05,2.2556250680269717e-05,2.542212405431849e-05,2.970521028657501e-05,3.6306929890018754e-05,4.5427373575655596e-05,5.668070232499356e-05,6.916114460423326e-05,8.152568066872791e-05,9.276482470694887e-05,0.00010191050948069132,0.00010853376275710067,0.00011290016515414804,0.00011573938912542087,0.00011866668675561873,0.00012310401923216558,0.000130050101843405,0.00013968178648418318,0.00015093395339991445,0.00016204983733634682,0.0001703227935883833,0.0001727156829100078,0.00016646340781421832,0.0,0.0,0.0,0.0,0.0,0.0,0.0,0.0,0.0,0.0,0.0,0.0,0.0,0.0,0.0,0.0,0.0,0.0,0.0,0.0,0.0,0.0,0.0,0.0,0.0,0.0,0.0,0.0,0.0,0.0,0.0,0.0,0.0,0.0,0.0,0.0,0.0,0.0,0.0,0.0,0.0,0.0,0.0,0.0,0.0,0.0,0.0,0.0,0.0,0.0,0.0,0.0,0.0,0.0,0.0,0.0,0.0,0.0,0.0,0.0,0.0,0.0,0.0,0.0,0.0,0.0,0.0,0.0,0.0,0.0,0.0,0.0,0.0,0.0,0.0,0.0,0.0,0.0,0.0,0.0,0.0,0.0,0.0,0.0,0.0,0.0,0.0,0.0,0.0,0.0,0.0,0.0,0.0,0.0,0.0,0.0,0.0,0.0,0.0,0.0,0.0,0.0,0.0,0.0,0.0,0.0,0.0,0.0,0.0,0.0,0.0,0.0,0.0,0.0,0.0,0.0,0.0,0.0,0.0,0.0,0.0,0.0,0.0,0.0,0.0,0.0,0.0,0.0,0.0,0.0,0.0,0.0,0.0,0.0,0.0,0.0,0.0,0.0,0.0,0.0,0.0,0.0,0.0,0.0,0.0,0.0,0.0,0.0,0.0,0.0,0.0,0.0,0.0,0.0,0.0,0.0,0.0,0.0,0.0,0.0,0.0,0.0,0.0,0.0,0.0,0.0,0.0,0.0,0.0,0.0,0.0,0.0,0.0,0.0,0.0,0.0,0.0,0.0,0.0,0.0,0.0,0.0,0.0,0.0,0.0,0.0,0.0,0.0,0.0,0.0,0.0,0.0,0.0,0.0,0.0,0.0,0.0,0.0,0.0,0.0,0.0,0.0,0.0,0.0,0.0,0.0,0.0,0.0,0.0,0.0,0.0,0.0,0.0,0.0,0.0,0.0,0.0,0.0,0.0
0.3419953775879393,0.33050490428923546,0.3122034497145443,0.2896811514825301,0.2657066411258541,0.2423035638990067,0.22193287622419666,0.20579646884229674,0.19421311479733663,0.186712927426946,0.18178414392051206,0.17867526609181264,0.17633811498147675,0.17403021714226874,0.1713941050474978,0.16812032531040716,0.16472559969272307,0.16150394558301118,0.1586310953048661,0.15607528266804954,0.15349976445112193,0.15068308162985997,0.14726869698698508,0.14304872436261132,0.13808254842161083,0.13255494461796466,0.12730616244625456,0.12309178579339541,0.12056619187339006,0.12008981417517209,0.12133886647807784,0.12413470252374419,0.1277606272779783,0.1314045572189529,0.1344109748205153,0.1361955620207269,0.1373893999865818,0.1389466941381633,0.14223652618040172,0.14873213546585856,0.15926158846007976,0.17481067457489008,0.1952854033584297,0.2197161536851707,0.2463696645948663,0.27259410541466234,0.29668845701030244,0.3170101479753508,0.3327316908736347,0.34400719372387406,0.35136836695136714,0.3571590761660853,0.36337258503171443,0.3716195535955186,0.3826217502027083,0.395471578261935,0.40882641272654463,0.41985540142017486,0.4251169447043097,0.42123630668154244,0.40537764925506997,0.37670132671435574,0.3359102402711714,0.2855669219803415,0.22980027438278444,0.17349801712296736,0.12222264472848099,0.0806699801976067,0.05219587948153256,0.03836424208402645,0.038644255082870255,0.05117269407414814,0.07262609168301307,0.09907101443103224,0.12667352187335815,0.15217829980635916,0.17382225670841195,0.19097858405479726,0.204219834176118,0.21498280166268985,0.22496349347676403,0.0,0.0,0.0,0.0,0.0,0.0,0.0,0.0,0.0,0.0,0.0,0.0,0.0,0.0,0.0,0.0,0.0,0.0,0.0,0.0,0.0,0.0,0.0,0.0,0.0,0.0,0.0,0.0,0.0,0.0,0.0,0.0,0.0,0.0,0.0,0.0,0.0,0.0,0.0,0.0,0.0,0.0,0.0,0.0,0.0,0.0,0.0,0.0,0.0,0.0,0.0,0.0,0.0,0.0,0.0,0.0,0.0,0.0,0.0,0.0,0.0,0.0,0.0,0.0,0.0,0.0,0.0,0.0,0.0,0.0,0.0,0.0,0.0,0.0,0.0,0.0,0.0,0.0,0.0,0.0,0.0,0.0,0.0,0.0,0.0,0.0,0.0,0.0,0.0,0.0,0.0,0.0,0.0,0.0,0.0,0.0,0.0,0.0,0.0,0.0,0.0,0.0,0.0,0.0,0.0,0.0,0.0,0.0,0.0,0.0,0.0,0.0,0.0,0.0,0.0,0.0,0.0,0.0,0.0,0.0,0.0,0.0,0.0,0.0,0.0,0.0,0.0,0.0,0.0,0.0,0.0,0.0,0.0,0.0,0.0,0.0,0.0,0.0,0.0,0.0,0.0,0.0,0.0,0.0,0.0,0.0,0.0,0.0,0.0,0.0,0.0,0.0,0.0,0.0,0.0,0.0,0.0,0.0,0.0,0.0,0.0,0.0,0.0,0.0,0.0,0.0,0.0,0.0,0.0,0.0,0.0,0.0,0.0,0.0,0.0,0.0,0.0,0.0,0.0,0.0,0.0,0.0,0.0,0.0,0.0,0.0,0.0,0.0,0.0,0.0,0.0,0.0,0.0,0.0,0.0,0.0,0.0,0.0,0.0,0.0,0.0,0.0,0.0,0.0,0.0,0.0,0.0,0.0,0.0,0.0,0.0,0.0,0.0,0.0,0.0,0.0,0.0,0.0,0.0,-5.281982335898379e-06,-3.285158813216587e-06,7.013487801951997e-07,5.6259463480747225e-06,1.047526826722244e-05,1.4546295239675282e-05,1.777374355523771e-05,2.0273403785788694e-05,2.2556250680269717e-05,2.542212405431849e-05,2.970521028657501e-05,3.6306929890018754e-05,4.5427373575655596e-05,5.668070232499356e-05,6.916114460423326e-05,8.152568066872791e-05,9.276482470694887e-05,0.00010191050948069132,0.00010853376275710067,0.00011290016515414804,0.00011573938912542087,0.00011866668675561873,0.00012310401923216558,0.000130050101843405,0.00013968178648418318,0.00015093395339991445,0.00016204983733634682,0.0001703227935883833,0.0001727156829100078,0.00016646340781421832,0.00014952465000739017,0.00012152411989071642,8.364886093307979e-05,3.860691235044437e-05,-9.829094304710195e-06,-5.77039341423476e-05,-0.00010112205207722267,-0.00013741962107760797,-0.0001655302101879065,-0.00018612159642363872,-0.00020153674480224079,-0.00021453519930303533,-0.0002280521208760546,-0.0002442148847274116,-0.0002637384605803977,-0.000285857989851319,-0.00030799844084851484,-0.00032679428464514615,-0.0003387999069437566,-0.00034135532473715665,-0.0003333935368038584,-0.0003153417709370199,-0.00028928882484584084,-0.00025840398617054116,-0.0002261968131957536,-0.00019607181296086277,-0.0001697015986601203,-0.00014750019297867038,-0.00012854331109424098,-0.00011103830165435059,-9.351411675617217e-05,-7.385239116165454e-05,-5.10034133545112e-05,-2.492038024477716e-05,3.4434393328506043e-06,3.181841416247516e-05,5.873943059401782e-05,8.2625089330825e-05,0.00010245989218139905,0.0001179251803200518,0.00012876141775874407,0.00013639727951220924,0.00014219352460341503,0.00014751700075378183,0.0001534156618953644,0.00015973233355645592,0.00016699785230480066,0.00017481395910348696,0.0001824277255580394,0.00018890614347067696,0.00019264311422366418,0.0,0.0,0.0,0.0,0.0,0.0,0.0,0.0,0.0,0.0,0.0,0.0,0.0,0.0,0.0,0.0,0.0,0.0,0.0,0.0,0.0,0.0,0.0,0.0,0.0,0.0,0.0,0.0,0.0,0.0,0.0,0.0,0.0,0.0,0.0,0.0,0.0,0.0,0.0,0.0,0.0,0.0,0.0,0.0,0.0,0.0,0.0,0.0,0.0,0.0,0.0,0.0,0.0,0.0,0.0,0.0,0.0,0.0,0.0,0.0,0.0,0.0,0.0,0.0,0.0,0.0,0.0,0.0,0.0,0.0,0.0,0.0,0.0,0.0,0.0,0.0,0.0,0.0,0.0,0.0,0.0,0.0,0.0,0.0,0.0,0.0,0.0,0.0,0.0,0.0,0.0,0.0,0.0,0.0,0.0,0.0,0.0,0.0,0.0,0.0,0.0,0.0,0.0,0.0,0.0,0.0,0.0,0.0,0.0,0.0,0.0,0.0,0.0,0.0,0.0,0.0,0.0,0.0,0.0,0.0,0.0,0.0,0.0,0.0,0.0,0.0,0.0,0.0,0.0,0.0,0.0,0.0,0.0,0.0,0.0,0.0,0.0,0.0,0.0,0.0,0.0,0.0,0.0,0.0,0.0,0.0,0.0,0.0,0.0,0.0,0.0,0.0,0.0,0.0,0.0,0.0,0.0,0.0,0.0,0.0,0.0,0.0,0.0,0.0,0.0,0.0,0.0,0.0,0.0,0.0,0.0,0.0,0.0,0.0,0.0,0.0,0.0,0.0,0.0,0.0,0.0,0.0,0.0,0.0,0.0,0.0,0.0,0.0,0.0,0.0,0.0,0.0,0.0,0.0,0.0,0.0,0.0,0.0,0.0,0.0,0.0,0.0,0.0,0.0,0.0,0.0,0.0,0.0,0.0,0.0,0.0,0.0,0.0,0.0,0.0,0.0,0.0,0.0,0.0
0.3571590761660853,0.36337258503171443,0.3716195535955186,0.3826217502027083,0.395471578261935,0.40882641272654463,0.41985540142017486,0.4251169447043097,0.42123630668154244,0.40537764925506997,0.37670132671435574,0.3359102402711714,0.2855669219803415,0.22980027438278444,0.17349801712296736,0.12222264472848099,0.0806699801976067,0.05219587948153256,0.03836424208402645,0.038644255082870255,0.05117269407414814,0.07262609168301307,0.09907101443103224,0.12667352187335815,0.15217829980635916,0.17382225670841195,0.19097858405479726,0.204219834176118,0.21498280166268985,0.22496349347676403,0.2360001441356108,0.24919191964105183,0.2647847315883527,0.28215139183114357,0.29987741006839674,0.31656433697439207,0.3308066855648554,0.34174691528744183,0.3493199819995973,0.35413970085206736,0.35771807863753396,0.36156307290562956,0.36687912780424287,0.37416626798648733,0.3827208612451227,0.3915503099475381,0.3986632870922147,0.4018128910052977,0.39901255397337726,0.38858954632237186,0.37086059249003195,0.3467909141260265,0.31828178905860716,0.2878132865195745,0.257600998309904,0.23036755562530065,0.20759666707729793,0.18980865345383044,0.17661401906577168,0.16662480295577972,0.15893351114014365,0.15215423557023952,0.14519984598201705,0.13750155677720297,0.12887880144526748,0.12004853684934792,0.11166792216910675,0.10433292088312147,0.09838909448863424,0.09380523910456619,0.09031309601488416,0.08739681999171249,0.08451526874863141,0.08128075656766938,0.0775164770990825,0.0735264462108547,0.06969621330306201,0.06646710752176618,0.0641724186467045,0.06280600820763507,0.062330653413878334,0.0,0.0,0.0,0.0,0.0,0.0,0.0,0.0,0.0,0.0,0.0,0.0,0.0,0.0,0.0,0.0,0.0,0.0,0.0,0.0,0.0,0.0,0.0,0.0,0.0,0.0,0.0,0.0,0.0,0.0,0.0,0.0,0.0,0.0,0.0,0.0,0.0,0.0,0.0,0.0,0.0,0.0,0.0,0.0,0.0,0.0,0.0,0.0,0.0,0.0,0.0,0.0,0.0,0.0,0.0,0.0,0.0,0.0,0.0,0.0,0.0,0.0,0.0,0.0,0.0,0.0,0.0,0.0,0.0,0.0,0.0,0.0,0.0,0.0,0.0,0.0,0.0,0.0,0.0,0.0,0.0,0.0,0.0,0.0,0.0,0.0,0.0,0.0,0.0,0.0,0.0,0.0,0.0,0.0,0.0,0.0,0.0,0.0,0.0,0.0,0.0,0.0,0.0,0.0,0.0,0.0,0.0,0.0,0.0,0.0,0.0,0.0,0.0,0.0,0.0,0.0,0.0,0.0,0.0,0.0,0.0,0.0,0.0,0.0,0.0,0.0,0.0,0.0,0.0,0.0,0.0,0.0,0.0,0.0,0.0,0.0,0.0,0.0,0.0,0.0,0.0,0.0,0.0,0.0,0.0,0.0,0.0,0.0,0.0,0.0,0.0,0.0,0.0,0.0,0.0,0.0,0.0,0.0,0.0,0.0,0.0,0.0,0.0,0.0,0.0,0.0,0.0,0.0,0.0,0.0,0.0,0.0,0.0,0.0,0.0,0.0,0.0,0.0,0.0,0.0,0.0,0.0,0.0,0.0,0.0,0.0,0.0,0.0,0.0,0.0,0.0,0.0,0.0,0.0,0.0,0.0,0.0,0.0,0.0,0.0,0.0,0.0,0.0,0.0,0.0,0.0,0.0,0.0,0.0,0.0,0.0,0.0,0.0,0.0,0.0,0.0,0.0,0.0,0.0,-0.0003153417709370199,-0.00028928882484584084,-0.00025840398617054116,-0.0002261968131957536,-0.00019607181296086277,-0.0001697015986601203,-0.00014750019297867038,-0.00012854331109424098,-0.00011103830165435059,-9.351411675617217e-05,-7.385239116165454e-05,-5.10034133545112e-05,-2.492038024477716e-05,3.4434393328506043e-06,3.181841416247516e-05,5.873943059401782e-05,8.2625089330825e-05,0.00010245989218139905,0.0001179251803200518,0.00012876141775874407,0.00013639727951220924,0.00014219352460341503,0.00014751700075378183,0.0001534156618953644,0.00015973233355645592,0.00016699785230480066,0.00017481395910348696,0.0001824277255580394,0.00018890614347067696,0.00019264311422366418,0.00019375021267615088,0.00019238293123968403,0.00018923787147050254,0.00018537727690388976,0.00018131381384131794,0.00017851958339102343,0.0001777372728419818,0.00017906804417245386,0.00018184841033710256,0.0001842033004133434,0.0001848665723496612,0.00018268131654764202,0.00017716776457270988,0.00016875726174905235,0.0001583603718266985,0.00014858582242552917,0.00014268071331997,0.00014407133489538338,0.00015566611316100213,0.0001787691225489503,0.0002138282184569796,0.0002597502095018178,0.00031398007024747255,0.0003727567517233689,0.00043109672799643305,0.00048482501776831214,0.0005304367698433022,0.0005657013726360835,0.0005898473902857357,0.0006029336417231513,0.0006071474650222995,0.0006052687689769801,0.0006003253789595834,0.0005950064145038807,0.0005905673463908427,0.0005886177874063518,0.0005896683798718403,0.0005936619425771574,0.0006001654387220254,0.0006077830932407447,0.000616660185333738,0.0006266235481707917,0.0006376003324514538,0.0006494323319534396,0.0006611099495854038,0.0006725359010488373,0.0006830340501692296,0.0006919252204695671,0.0006986992251848536,0.0007027444975379043,0.0007047117958701142,0.0,0.0,0.0,0.0,0.0,0.0,0.0,0.0,0.0,0.0,0.0,0.0,0.0,0.0,0.0,0.0,0.0,0.0,0.0,0.0,0.0,0.0,0.0,0.0,0.0,0.0,0.0,0.0,0.0,0.0,0.0,0.0,0.0,0.0,0.0,0.0,0.0,0.0,0.0,0.0,0.0,0.0,0.0,0.0,0.0,0.0,0.0,0.0,0.0,0.0,0.0,0.0,0.0,0.0,0.0,0.0,0.0,0.0,0.0,0.0,0.0,0.0,0.0,0.0,0.0,0.0,0.0,0.0,0.0,0.0,0.0,0.0,0.0,0.0,0.0,0.0,0.0,0.0,0.0,0.0,0.0,0.0,0.0,0.0,0.0,0.0,0.0,0.0,0.0,0.0,0.0,0.0,0.0,0.0,0.0,0.0,0.0,0.0,0.0,0.0,0.0,0.0,0.0,0.0,0.0,0.0,0.0,0.0,0.0,0.0,0.0,0.0,0.0,0.0,0.0,0.0,0.0,0.0,0.0,0.0,0.0,0.0,0.0,0.0,0.0,0.0,0.0,0.0,0.0,0.0,0.0,0.0,0.0,0.0,0.0,0.0,0.0,0.0,0.0,0.0,0.0,0.0,0.0,0.0,0.0,0.0,0.0,0.0,0.0,0.0,0.0,0.0,0.0,0.0,0.0,0.0,0.0,0.0,0.0,0.0,0.0,0.0,0.0,0.0,0.0,0.0,0.0,0.0,0.0,0.0,0.0,0.0,0.0,0.0,0.0,0.0,0.0,0.0,0.0,0.0,0.0,0.0,0.0,0.0,0.0,0.0,0.0,0.0,0.0,0.0,0.0,0.0,0.0,0.0,0.0,0.0,0.0,0.0,0.0,0.0,0.0,0.0,0.0,0.0,0.0,0.0,0.0,0.0,0.0,0.0,0.0,0.0,0.0,0.0,0.0,0.0,0.0,0.0,0.0
0.24151806879613388,0.23415920512037924,0.22052658288533894,0.20326567841412282,0.18501102413182405,0.16767098818519466,0.15310395585888514,0.14204479759448452,0.1344360390608236,0.1296162245792588,0.1264039444901181,0.12400154536014067,0.1216412348658865,0.11890167880721471,0.11572447236345075,0.11218152935762445,0.10877031315896901,0.10583199502592536,0.10353923541372409,0.10183272014764272,0.10034668855744101,0.09878872357703819,0.09683385071931713,0.09430587611555387,0.09124801380311559,0.08785616712430834,0.08462750520332088,0.0820883146807328,0.08068794535617063,0.08066330745858843,0.08190585980363439,0.08408991426693797,0.08667443430092697,0.08906535881053938,0.09080201199396809,0.09167397251575735,0.0920525948400124,0.09281583370090081,0.0952741260104425,0.10094071652934776,0.11111853911466105,0.1268021866315169,0.14821710726720128,0.17464480935809196,0.20438370406605283,0.234659436019151,0.26275821596369725,0.2857786179013672,0.30131094989861346,0.30782669160275794,0.3045010128442485,0.2925724582634259,0.27390886045367974,0.2510464493808351,0.22673997394431963,0.20318203110866112,0.18262598544421138,0.16617975920256642,0.15404664485448502,0.14565325628588138,0.13969554690751845,0.135166275682538,0.13099574415495438,0.12647900543345664,0.12136711123043127,0.11562125126417419,0.10989145653170941,0.10469580135368525,0.10040022666839364,0.09708096617498117,0.0943121814792292,0.0918154780243303,0.08907426739102284,0.08568814016335102,0.08153349104456958,0.07670447150564691,0.07194082623807642,0.06805492580529521,0.06586696927727234,0.065986015914158,0.0685315882089058,0.0,0.0,0.0,0.0,0.0,0.0,0.0,0.0,0.0,0.0,0.0,0.0,0.0,0.0,0.0,0.0,0.0,0.0,0.0,0.0,0.0,0.0,0.0,0.0,0.0,0.0,0.0,0.0,0.0,0.0,0.0,0.0,0.0,0.0,0.0,0.0,0.0,0.0,0.0,0.0,0.0,0.0,0.0,0.0,0.0,0.0,0.0,0.0,0.0,0.0,0.0,0.0,0.0,0.0,0.0,0.0,0.0,0.0,0.0,0.0,0.0,0.0,0.0,0.0,0.0,0.0,0.0,0.0,0.0,0.0,0.0,0.0,0.0,0.0,0.0,0.0,0.0,0.0,0.0,0.0,0.0,0.0,0.0,0.0,0.0,0.0,0.0,0.0,0.0,0.0,0.0,0.0,0.0,0.0,0.0,0.0,0.0,0.0,0.0,0.0,0.0,0.0,0.0,0.0,0.0,0.0,0.0,0.0,0.0,0.0,0.0,0.0,0.0,0.0,0.0,0.0,0.0,0.0,0.0,0.0,0.0,0.0,0.0,0.0,0.0,0.0,0.0,0.0,0.0,0.0,0.0,0.0,0.0,0.0,0.0,0.0,0.0,0.0,0.0,0.0,0.0,0.0,0.0,0.0,0.0,0.0,0.0,0.0,0.0,0.0,0.0,0.0,0.0,0.0,0.0,0.0,0.0,0.0,0.0,0.0,0.0,0.0,0.0,0.0,0.0,0.0,0.0,0.0,0.0,0.0,0.0,0.0,0.0,0.0,0.0,0.0,0.0,0.0,0.0,0.0,0.0,0.0,0.0,0.0,0.0,0.0,0.0,0.0,0.0,0.0,0.0,0.0,0.0,0.0,0.0,0.0,0.0,0.0,0.0,0.0,0.0,0.0,0.0,0.0,0.0,0.0,0.0,0.0,0.0,0.0,0.0,0.0,0.0,0.0,0.0,0.0,0.0,0.0,0.0,0.00016865085010870845,0.00017704234883277904,0.00019148136376939052,0.00020978741037973965,0.00022935742562727203,0.0002474490094470737,0.00026293962982609336,0.0002750165244025243,0.00028397286176641925,0.0002911443824539238,0.00029825261700016156,0.00030806046096811565,0.0003220716063221883,0.0003406703769884842,0.0003629262666628897,0.00038601058092441003,0.00040787068907002067,0.00042518943774557327,0.0004348810952405782,0.00043470815087185566,0.00042268216119650137,0.0004006675870760068,0.00037077279744948736,0.0003360469557136039,0.0002998900503982309,0.0002644995482921152,0.00023306890776583482,0.00020657636797109577,0.00018450806977076808,0.00016507194992460618,0.00014501202756391185,0.00012253788720196276,9.596649358886793e-05,6.486735679531257e-05,3.0261374497745772e-05,-6.131346731460796e-06,-4.06055162701842e-05,-6.994813369482019e-05,-9.166436933437681e-05,-0.00010454920092911463,-0.00010935447300489243,-0.00010723198801168092,-0.00010064982111871223,-9.226731197893818e-05,-8.426558138933851e-05,-7.827263429087449e-05,-7.403585359147064e-05,-7.085953774960466e-05,-6.774750440411906e-05,-6.398196184956234e-05,-5.9890602778160364e-05,-5.594737053900049e-05,-5.3498795863522046e-05,-5.391685184629656e-05,-5.7880914795091784e-05,-6.506170425228765e-05,-7.264033614624151e-05,-7.647037633498265e-05,-7.130656187198607e-05,-5.177986774062121e-05,-1.3940607648315627e-05,4.479612861752396e-05,0.00012364680819784756,0.00021860850180361894,0.0003228694549084466,0.0004273908594130431,0.0005236908520847064,0.000603907418287116,0.0006625837446891936,0.0006975187775575144,0.000709482885952391,0.0007033109082941527,0.0006851485224107579,0.0006616228337638391,0.0006384798594438162,0.000619057982734241,0.0006052341616016322,0.0005960227363287327,0.0005886324694291144,0.0005794409413301181,0.0005646253260385919,0.0,0.0,0.0,0.0,0.0,0.0,0.0,0.0,0.0,0.0,0.0,0.0,0.0,0.0,0.0,0.0,0.0,0.0,0.0,0.0,0.0,0.0,0.0,0.0,0.0,0.0,0.0,0.0,0.0,0.0,0.0,0.0,0.0,0.0,0.0,0.0,0.0,0.0,0.0,0.0,0.0,0.0,0.0,0.0,0.0,0.0,0.0,0.0,0.0,0.0,0.0,0.0,0.0,0.0,0.0,0.0,0.0,0.0,0.0,0.0,0.0,0.0,0.0,0.0,0.0,0.0,0.0,0.0,0.0,0.0,0.0,0.0,0.0,0.0,0.0,0.0,0.0,0.0,0.0,0.0,0.0,0.0,0.0,0.0,0.0,0.0,0.0,0.0,0.0,0.0,0.0,0.0,0.0,0.0,0.0,0.0,0.0,0.0,0.0,0.0,0.0,0.0,0.0,0.0,0.0,0.0,0.0,0.0,0.0,0.0,0.0,0.0,0.0,0.0,0.0,0.0,0.0,0.0,0.0,0.0,0.0,0.0,0.0,0.0,0.0,0.0,0.0,0.0,0.0,0.0,0.0,0.0,0.0,0.0,0.0,0.0,0.0,0.0,0.0,0.0,0.0,0.0,0.0,0.0,0.0,0.0,0.0,0.0,0.0,0.0,0.0,0.0,0.0,0.0,0.0,0.0,0.0,0.0,0.0,0.0,0.0,0.0,0.0,0.0,0.0,0.0,0.0,0.0,0.0,0.0,0.0,0.0,0.0,0.0,0.0,0.0,0.0,0.0,0.0,0.0,0.0,0.0,0.0,0.0,0.0,0.0,0.0,0.0,0.0,0.0,0.0,0.0,0.0,0.0,0.0,0.0,0.0,0.0,0.0,0.0,0.0,0.0,0.0,0.0,0.0,0.0,0.0,0.0,0.0,0.0,0.0,0.0,0.0,0.0,0.0,0.0,0.0,0.0,0.0
0.07181119543643082,-0.008181307300439672,-0.08089374037347936,-0.14003003188438923,-0.18119785344809222,-0.20246286990345932,-0.20464418601156778,-0.19047975795703206,-0.16444075493212768,-0.13171632017818183,-0.09731308328049329,-0.0654540749724414,-0.038628019048415466,-0.017862879512077958,-0.002806080720964546,0.007836703342472745,0.015617291826496025,0.022256596109389116,0.02894343917980977,0.036257533808239144,0.044202151383197726,0.052215929246551454,0.060007448243751316,0.06727444526247887,0.07401853119558476,0.08056759942392272,0.08725393440689941,0.09493935318153068,0.1040770273321354,0.1147685745408332,0.126682191406798,0.13907240823214392,0.15097774082611132,0.1612084150764583,0.16870605750762727,0.17279678338967336,0.17356345919520097,0.17130136019742304,0.16670246243575676,0.1606650448339494,0.15413134288582414,0.14797866858263747,0.14291570653302874,0.13918701837952882,0.13676406733390162,0.13546590238197492,0.13493661604701015,0.1352807858472822,0.13627586869597544,0.13768001470672198,0.13924813916092307,0.1406983884423357,0.14190414298466728,0.14271527884694668,0.1430705206459099,0.1430303759398712,0.1428219690412572,0.1425744479974517,0.14261575104509067,0.14318454214816143,0.14430245675030548,0.14567703980532548,0.1468445904686657,0.14735790671643847,0.1469284113264035,0.14557453756073976,0.14355767789944765,0.14172762498943994,0.14102599651369074,0.14225642415260253,0.1457199299606758,0.1507172393182431,0.1559130818185292,0.15890988903761155,0.15664297398383314,0.14586532236061178,0.1235623925516684,0.08831233602087929,0.04023163750639224,-0.0185589985776138,-0.08400762483321521,0.0,0.0,0.0,0.0,0.0,0.0,0.0,0.0,0.0,0.0,0.0,0.0,0.0,0.0,0.0,0.0,0.0,0.0,0.0,0.0,0.0,0.0,0.0,0.0,0.0,0.0,0.0,0.0,0.0,0.0,0.0,0.0,0.0,0.0,0.0,0.0,0.0,0.0,0.0,0.0,0.0,0.0,0.0,0.0,0.0,0.0,0.0,0.0,0.0,0.0,0.0,0.0,0.0,0.0,0.0,0.0,0.0,0.0,0.0,0.0,0.0,0.0,0.0,0.0,0.0,0.0,0.0,0.0,0.0,0.0,0.0,0.0,0.0,0.0,0.0,0.0,0.0,0.0,0.0,0.0,0.0,0.0,0.0,0.0,0.0,0.0,0.0,0.0,0.0,0.0,0.0,0.0,0.0,0.0,0.0,0.0,0.0,0.0,0.0,0.0,0.0,0.0,0.0,0.0,0.0,0.0,0.0,0.0,0.0,0.0,0.0,0.0,0.0,0.0,0.0,0.0,0.0,0.0,0.0,0.0,0.0,0.0,0.0,0.0,0.0,0.0,0.0,0.0,0.0,0.0,0.0,0.0,0.0,0.0,0.0,0.0,0.0,0.0,0.0,0.0,0.0,0.0,0.0,0.0,0.0,0.0,0.0,0.0,0.0,0.0,0.0,0.0,0.0,0.0,0.0,0.0,0.0,0.0,0.0,0.0,0.0,0.0,0.0,0.0,0.0,0.0,0.0,0.0,0.0,0.0,0.0,0.0,0.0,0.0,0.0,0.0,0.0,0.0,0.0,0.0,0.0,0.0,0.0,0.0,0.0,0.0,0.0,0.0,0.0,0.0,0.0,0.0,0.0,0.0,0.0,0.0,0.0,0.0,0.0,0.0,0.0,0.0,0.0,0.0,0.0,0.0,0.0,0.0,0.0,0.0,0.0,0.0,0.0,0.0,0.0,0.0,0.0,0.0,0.0,0.00043976416570651994,0.00047143323659286547,0.000501425609774613,0.0005268862557705648,0.0005454399221313556,0.0005556960883090953,0.0005572995898433841,0.0005516549116854681,0.000540945712752144,0.0005277912000162412,0.0005146238041995972,0.000502956610593147,0.0004936743417267111,0.00048646985724127727,0.0004802474039883089,0.00047355152009009903,0.0004648918947503823,0.0004536107863198498,0.0004396704878263033,0.0004237321888700243,0.00040691496678364866,0.0003902060228511373,0.00037487470432813415,0.0003615115201934278,0.0003501402912790916,0.00034027841347719835,0.0003308005374538056,0.00032123871810369294,0.00031101201780489655,0.00029989172620499706,0.0002880413005228538,0.00027565792751010334,0.0002637121824910297,0.00025285664490698825,0.00024352148554556666,0.00023580418756850936,0.0002292188100422088,0.0002235362463348023,0.00021816037499267554,0.000212550426276277,0.00020638625516851457,0.00019940062281685304,0.00019229972506196335,0.000185719986725233,0.00018039219886774264,0.00017696832276851981,0.00017555054613021954,0.0001766326959926028,0.00017991839530569242,0.0001847701422593112,0.0001903545317866026,0.00019532939989436052,0.0001995823933388746,0.0002026056976581175,0.00020405851570565067,0.00020374074080468536,0.00020089771081045874,0.00019633944453505017,0.0001901990339514289,0.00018270174352549233,0.00017424616220365226,0.00016483268992254648,0.0001561199202381328,0.0001492005888250555,0.00014512963343526575,0.00014475158360261915,0.00014793195312953026,0.00015541875530842062,0.00016677555056439402,0.00018106588159312367,0.00019697823666529402,0.00021245545402968387,0.00022661404095663862,0.00023812413187869057,0.0002458990393879544,0.0002492048897279689,0.0002472718515647441,0.0002408503920165743,0.00023067715675655109,0.0002178871928051674,0.00020388905552236553,0.0,0.0,0.0,0.0,0.0,0.0,0.0,0.0,0.0,0.0,0.0,0.0,0.0,0.0,0.0,0.0,0.0,0.0,0.0,0.0,0.0,0.0,0.0,0.0,0.0,0.0,0.0,0.0,0.0,0.0,0.0,0.0,0.0,0.0,0.0,0.0,0.0,0.0,0.0,0.0,0.0,0.0,0.0,0.0,0.0,0.0,0.0,0.0,0.0,0.0,0.0,0.0,0.0,0.0,0.0,0.0,0.0,0.0,0.0,0.0,0.0,0.0,0.0,0.0,0.0,0.0,0.0,0.0,0.0,0.0,0.0,0.0,0.0,0.0,0.0,0.0,0.0,0.0,0.0,0.0,0.0,0.0,0.0,0.0,0.0,0.0,0.0,0.0,0.0,0.0,0.0,0.0,0.0,0.0,0.0,0.0,0.0,0.0,0.0,0.0,0.0,0.0,0.0,0.0,0.0,0.0,0.0,0.0,0.0,0.0,0.0,0.0,0.0,0.0,0.0,0.0,0.0,0.0,0.0,0.0,0.0,0.0,0.0,0.0,0.0,0.0,0.0,0.0,0.0,0.0,0.0,0.0,0.0,0.0,0.0,0.0,0.0,0.0,0.0,0.0,0.0,0.0,0.0,0.0,0.0,0.0,0.0,0.0,0.0,0.0,0.0,0.0,0.0,0.0,0.0,0.0,0.0,0.0,0.0,0.0,0.0,0.0,0.0,0.0,0.0,0.0,0.0,0.0,0.0,0.0,0.0,0.0,0.0,0.0,0.0,0.0,0.0,0.0,0.0,0.0,0.0,0.0,0.0,0.0,0.0,0.0,0.0,0.0,0.0,0.0,0.0,0.0,0.0,0.0,0.0,0.0,0.0,0.0,0.0,0.0,0.0,0.0,0.0,0.0,0.0,0.0,0.0,0.0,0.0,0.0,0.0,0.0,0.0,0.0,0.0,0.0,0.0,0.0,0.0
-0.31388057202704217,-0.3114034212868631,-0.29222007779216835,-0.26038375688879994,-0.22105694688409971,-0.1795409362826463,-0.14062351509663853,-0.10712567452321309,-0.08040397012211525,-0.06022656397175143,-0.04520130053825044,-0.03362271805578347,-0.02328573784364194,-0.012698790137822265,-0.001104176695240591,0.011516228959311004,0.02437904639276953,0.036994333961670345,0.04870471309488756,0.0591268236085672,0.06823375845687246,0.07605399811955327,0.08334069127828315,0.0906218247030821,0.0982700009515566,0.10640188947735482,0.1146094403638633,0.12283924289118325,0.1307396136110607,0.13802407749142337,0.14457002049783718,0.15020279163265013,0.1554768091472779,0.16080189807592463,0.16654031183121087,0.1728690553074012,0.17943152317211933,0.18612821153232179,0.1924045204616454,0.19761228173697484,0.20116809011696526,0.20244687705749553,0.20168349539147254,0.19921254693946358,0.19562785499238383,0.1916443172743482,0.1878127305001018,0.18470615053966902,0.18268021838969148,0.18185290055876474,0.18212054443173115,0.18322883652599858,0.18470359946000395,0.18638594414585674,0.18822359463877672,0.19020082941691785,0.19219001574737574,0.19405129454115677,0.19572206267241218,0.19714784774932995,0.19828111440210458,0.1989315017022607,0.19921219869435203,0.19925344214268542,0.1992233061403771,0.199267614552939,0.19927234651290557,0.19939280885026675,0.19962581121513057,0.19993314683316218,0.20025411470377347,0.20030355939404637,0.2002522818937873,0.20014772855615123,0.20005889287277298,0.20004268815334958,0.19987614540200574,0.19978669749495312,0.19977039458062182,0.19979932192927427,0.1998312616029257,0.0,0.0,0.0,0.0,0.0,0.0,0.0,0.0,0.0,0.0,0.0,0.0,0.0,0.0,0.0,0.0,0.0,0.0,0.0,0.0,0.0,0.0,0.0,0.0,0.0,0.0,0.0,0.0,0.0,0.0,0.0,0.0,0.0,0.0,0.0,0.0,0.0,0.0,0.0,0.0,0.0,0.0,0.0,0.0,0.0,0.0,0.0,0.0,0.0,0.0,0.0,0.0,0.0,0.0,0.0,0.0,0.0,0.0,0.0,0.0,0.0,0.0,0.0,0.0,0.0,0.0,0.0,0.0,0.0,0.0,0.0,0.0,0.0,0.0,0.0,0.0,0.0,0.0,0.0,0.0,0.0,0.0,0.0,0.0,0.0,0.0,0.0,0.0,0.0,0.0,0.0,0.0,0.0,0.0,0.0,0.0,0.0,0.0,0.0,0.0,0.0,0.0,0.0,0.0,0.0,0.0,0.0,0.0,0.0,0.0,0.0,0.0,0.0,0.0,0.0,0.0,0.0,0.0,0.0,0.0,0.0,0.0,0.0,0.0,0.0,0.0,0.0,0.0,0.0,0.0,0.0,0.0,0.0,0.0,0.0,0.0,0.0,0.0,0.0,0.0,0.0,0.0,0.0,0.0,0.0,0.0,0.0,0.0,0.0,0.0,0.0,0.0,0.0,0.0,0.0,0.0,0.0,0.0,0.0,0.0,0.0,0.0,0.0,0.0,0.0,0.0,0.0,0.0,0.0,0.0,0.0,0.0,0.0,0.0,0.0,0.0,0.0,0.0,0.0,0.0,0.0,0.0,0.0,0.0,0.0,0.0,0.0,0.0,0.0,0.0,0.0,0.0,0.0,0.0,0.0,0.0,0.0,0.0,0.0,0.0,0.0,0.0,0.0,0.0,0.0,0.0,0.0,0.0,0.0,0.0,0.0,0.0,0.0,0.0,0.0,0.0,0.0,0.0,0.0,0.00015857322131676216,0.00015773284041765645,0.00015830868031539797,0.0001590911644220226,0.0001590571455995241,0.00015766464949245031,0.00015461878093249123,0.00015127153127287278,0.00014923409164467735,0.00015044465764501718,0.00015675607766813847,0.00016908425785547055,0.00018838280406877265,0.00021424778518715437,0.0002452512888046018,0.00027911788414007393,0.00031254032801512346,0.00034327073607266166,0.00036911188711854413,0.00038866453905922515,0.0004014796906120094,0.00040738854167168874,0.0004082683250008544,0.0004060017308957845,0.00040254396402035464,0.0003995033213693767,0.0003971238863876007,0.000396274062324743,0.00039665711265740334,0.00039745099997803656,0.0003975269521267439,0.00039496069150319924,0.00038962331484025675,0.00038147052792800634,0.0003710875412811186,0.0003595370630903121,0.0003473859805899493,0.0003365806750421088,0.0003283022637068598,0.00032325743833559116,0.0003215471740538804,0.0003220239136232623,0.00032448276644346524,0.00032807294535937764,0.00033203979962561866,0.00033586742732703866,0.0003387697808257806,0.0003413499503947564,0.0003439401323068794,0.00034684999253442654,0.00035018768060019693,0.00035331107062102084,0.00035623354531235334,0.0003585204868640699,0.00035981947372657147,0.0003600425886248092,0.0003592595434265572,0.00035853581536752474,0.0003591020503760607,0.00036241611960900836,0.00036989749664942146,0.0003825731032758358,0.000400967735278611,0.0004246022487720435,0.00045211565358833623,0.0004814834760938489,0.0005102523494575292,0.0005366509091213158,0.0005593023122043059,0.0005778495583182001,0.0005930694555382764,0.0006063825718286064,0.0006204067371047318,0.0006370770193262332,0.0006574444731480263,0.0006812657948880825,0.0007065493990900186,0.0007310799904060912,0.0007516153879254838,0.0007651104641419398,0.0007694621342378885,0.0,0.0,0.0,0.0,0.0,0.0,0.0,0.0,0.0,0.0,0.0,0.0,0.0,0.0,0.0,0.0,0.0,0.0,0.0,0.0,0.0,0.0,0.0,0.0,0.0,0.0,0.0,0.0,0.0,0.0,0.0,0.0,0.0,0.0,0.0,0.0,0.0,0.0,0.0,0.0,0.0,0.0,0.0,0.0,0.0,0.0,0.0,0.0,0.0,0.0,0.0,0.0,0.0,0.0,0.0,0.0,0.0,0.0,0.0,0.0,0.0,0.0,0.0,0.0,0.0,0.0,0.0,0.0,0.0,0.0,0.0,0.0,0.0,0.0,0.0,0.0,0.0,0.0,0.0,0.0,0.0,0.0,0.0,0.0,0.0,0.0,0.0,0.0,0.0,0.0,0.0,0.0,0.0,0.0,0.0,0.0,0.0,0.0,0.0,0.0,0.0,0.0,0.0,0.0,0.0,0.0,0.0,0.0,0.0,0.0,0.0,0.0,0.0,0.0,0.0,0.0,0.0,0.0,0.0,0.0,0.0,0.0,0.0,0.0,0.0,0.0,0.0,0.0,0.0,0.0,0.0,0.0,0.0,0.0,0.0,0.0,0.0,0.0,0.0,0.0,0.0,0.0,0.0,0.0,0.0,0.0,0.0,0.0,0.0,0.0,0.0,0.0,0.0,0.0,0.0,0.0,0.0,0.0,0.0,0.0,0.0,0.0,0.0,0.0,0.0,0.0,0.0,0.0,0.0,0.0,0.0,0.0,0.0,0.0,0.0,0.0,0.0,0.0,0.0,0.0,0.0,0.0,0.0,0.0,0.0,0.0,0.0,0.0,0.0,0.0,0.0,0.0,0.0,0.0,0.0,0.0,0.0,0.0,0.0,0.0,0.0,0.0,0.0,0.0,0.0,0.0,0.0,0.0,0.0,0.0,0.0,0.0,0.0,0.0,0.0,0.0,0.0,0.0,0.0
0.282938837132823,0.2823569672450682,0.27327515791498413,0.25782462325637734,0.23863694401237678,0.21838211766343912,0.19897018778529593,0.1824034005431618,0.16948893741171195,0.16019548273692655,0.15382539819405522,0.1489958451425234,0.1449018097604766,0.1406890701994625,0.13589763085133647,0.13049967327583417,0.12457312282764475,0.11887450249868635,0.11392221944900918,0.11002432124495683,0.10717394835761312,0.10487471494826099,0.10279837841009812,0.10044268074057801,0.09745779716979357,0.09377606617392714,0.0895147734497066,0.08536976249294256,0.08206023324660391,0.08025503898487572,0.08037818399024114,0.08236423857098514,0.08596486425306742,0.09051582044987322,0.09521397738260204,0.09936103331289566,0.10251638523854421,0.10496344672233619,0.1075055721626824,0.1114463069785572,0.1183438826355502,0.12958639202232036,0.14624269675573864,0.16852832561970868,0.19567620763743285,0.22594072849129976,0.25656138014182495,0.2849720450216313,0.30849707401490667,0.3250609834244986,0.33353757434704934,0.33347578441585735,0.3264363735997765,0.3143542734556634,0.29954980137845083,0.28426777597771813,0.2699141899527424,0.25790698104800813,0.24849182362824118,0.2411788706660853,0.2349979776083869,0.2285631104203004,0.22125105781032622,0.2126136453897355,0.20271028383738737,0.1920390369666254,0.1811064395815642,0.17094222711414458,0.1621418763262416,0.15492282113735797,0.1490800963248639,0.14385455977982417,0.13877996504530712,0.1332737476156676,0.12701001584582453,0.12002091796747162,0.1126355511041237,0.10553538489013677,0.09932609615438726,0.0944323878475151,0.09096173961007933,0.0,0.0,0.0,0.0,0.0,0.0,0.0,0.0,0.0,0.0,0.0,0.0,0.0,0.0,0.0,0.0,0.0,0.0,0.0,0.0,0.0,0.0,0.0,0.0,0.0,0.0,0.0,0.0,0.0,0.0,0.0,0.0,0.0,0.0,0.0,0.0,0.0,0.0,0.0,0.0,0.0,0.0,0.0,0.0,0.0,0.0,0.0,0.0,0.0,0.0,0.0,0.0,0.0,0.0,0.0,0.0,0.0,0.0,0.0,0.0,0.0,0.0,0.0,0.0,0.0,0.0,0.0,0.0,0.0,0.0,0.0,0.0,0.0,0.0,0.0,0.0,0.0,0.0,0.0,0.0,0.0,0.0,0.0,0.0,0.0,0.0,0.0,0.0,0.0,0.0,0.0,0.0,0.0,0.0,0.0,0.0,0.0,0.0,0.0,0.0,0.0,0.0,0.0,0.0,0.0,0.0,0.0,0.0,0.0,0.0,0.0,0.0,0.0,0.0,0.0,0.0,0.0,0.0,0.0,0.0,0.0,0.0,0.0,0.0,0.0,0.0,0.0,0.0,0.0,0.0,0.0,0.0,0.0,0.0,0.0,0.0,0.0,0.0,0.0,0.0,0.0,0.0,0.0,0.0,0.0,0.0,0.0,0.0,0.0,0.0,0.0,0.0,0.0,0.0,0.0,0.0,0.0,0.0,0.0,0.0,0.0,0.0,0.0,0.0,0.0,0.0,0.0,0.0,0.0,0.0,0.0,0.0,0.0,0.0,0.0,0.0,0.0,0.0,0.0,0.0,0.0,0.0,0.0,0.0,0.0,0.0,0.0,0.0,0.0,0.0,0.0,0.0,0.0,0.0,0.0,0.0,0.0,0.0,0.0,0.0,0.0,0.0,0.0,0.0,0.0,0.0,0.0,0.0,0.0,0.0,0.0,0.0,0.0,0.0,0.0,0.0,0.0,0.0,0.0,0.0004141247991221826,0.000409809464025808,0.00039972886202630593,0.0003846312190230216,0.00036603334825836923,0.00034591954771393246,0.0003258720120609834,0.0003081758857037459,0.00029408072594674163,0.0002840439261725376,0.00027771429630568244,0.0002737066067520783,0.0002710352940850825,0.0002683638317038304,0.0002646452929941173,0.0002593805125904157,0.0002523363790789372,0.00024495357141510914,0.00023906504866665299,0.00023696978739962246,0.000241046728875149,0.00025278984635171946,0.000273933771381478,0.000304788435178311,0.00034428472445664825,0.00038982133589686864,0.000436722624018873,0.0004803943309562787,0.0005153435185339546,0.0005362361769814229,0.0005385959429185883,0.0005187898951456647,0.00047672171771682124,0.0004144375831815389,0.00033656927721102643,0.0002499035626457837,0.00016180031735593697,8.16605107206114e-05,1.766165151634585e-05,-2.3754962371353266e-05,-3.878881762702092e-05,-2.770648507448754e-05,7.991135539590287e-06,6.348942777395508e-05,0.0001321724907086109,0.00020657958553494288,0.00027845222345982746,0.0003424522352449788,0.00039412680746041414,0.0004308906286499191,0.00045194798869690664,0.0004570863446813257,0.00044923743906459513,0.00043142974570924055,0.00040719924254388945,0.00038024024912084126,0.000353394480689113,0.00033056680408891505,0.00031442939103960366,0.00030681001075270013,0.0003085325095447759,0.0003188948963362607,0.0003372029371202503,0.0003615442066103464,0.00038952676664620096,0.00041865604944131324,0.0004462574913659704,0.00047128448165003565,0.0004931093820943411,0.0005119657596020673,0.0005287795893378506,0.0005443801711066584,0.0005605929405151863,0.000578458880976619,0.0005983607426958174,0.0006199095441832035,0.0006415811672254389,0.0006625606921198873,0.0006815604255943941,0.0006977486714072884,0.0007110394990285563,0.0,0.0,0.0,0.0,0.0,0.0,0.0,0.0,0.0,0.0,0.0,0.0,0.0,0.0,0.0,0.0,0.0,0.0,0.0,0.0,0.0,0.0,0.0,0.0,0.0,0.0,0.0,0.0,0.0,0.0,0.0,0.0,0.0,0.0,0.0,0.0,0.0,0.0,0.0,0.0,0.0,0.0,0.0,0.0,0.0,0.0,0.0,0.0,0.0,0.0,0.0,0.0,0.0,0.0,0.0,0.0,0.0,0.0,0.0,0.0,0.0,0.0,0.0,0.0,0.0,0.0,0.0,0.0,0.0,0.0,0.0,0.0,0.0,0.0,0.0,0.0,0.0,0.0,0.0,0.0,0.0,0.0,0.0,0.0,0.0,0.0,0.0,0.0,0.0,0.0,0.0,0.0,0.0,0.0,0.0,0.0,0.0,0.0,0.0,0.0,0.0,0.0,0.0,0.0,0.0,0.0,0.0,0.0,0.0,0.0,0.0,0.0,0.0,0.0,0.0,0.0,0.0,0.0,0.0,0.0,0.0,0.0,0.0,0.0,0.0,0.0,0.0,0.0,0.0,0.0,0.0,0.0,0.0,0.0,0.0,0.0,0.0,0.0,0.0,0.0,0.0,0.0,0.0,0.0,0.0,0.0,0.0,0.0,0.0,0.0,0.0,0.0,0.0,0.0,0.0,0.0,0.0,0.0,0.0,0.0,0.0,0.0,0.0,0.0,0.0,0.0,0.0,0.0,0.0,0.0,0.0,0.0,0.0,0.0,0.0,0.0,0.0,0.0,0.0,0.0,0.0,0.0,0.0,0.0,0.0,0.0,0.0,0.0,0.0,0.0,0.0,0.0,0.0,0.0,0.0,0.0,0.0,0.0,0.0,0.0,0.0,0.0,0.0,0.0,0.0,0.0,0.0,0.0,0.0,0.0,0.0,0.0,0.0,0.0,0.0,0.0,0.0,0.0,0.0
-0.16982421579832718,-0.1791271251271479,-0.16949216283475177,-0.1410021030394545,-0.09607527430395327,-0.03907669732817408,0.02421028240094871,0.08713501243303365,0.1435334465044511,0.18800074918094764,0.2166586819636103,0.2275476899290453,0.22054966018827854,0.19787582750401003,0.16313425752613456,0.12090735187879043,0.07605916117783944,0.03264587553886661,-0.005475843833308009,-0.03622678036773511,-0.059169653176299714,-0.07542936757336645,-0.08789144128649569,-0.0987804805682238,-0.11066750587064825,-0.12527939035684432,-0.14303288624728455,-0.16335494417499102,-0.18339730479697447,-0.1999841974649042,-0.20990173425292277,-0.21063640492120264,-0.20132222051101206,-0.1818518202584339,-0.15393508961460317,-0.12038987357557514,-0.08457044840068834,-0.050080242152196495,-0.019161208548674483,0.006607791625617763,0.0267004873089434,0.04149550811982596,0.05167116412203798,0.058840265513110196,0.06430557699678462,0.0691291378987416,0.07403633608988924,0.07920477790937411,0.084974620337432,0.09145087967658808,0.09866657240265861,0.10657716405995253,0.11490498409357996,0.12341551170832557,0.13189558853465383,0.14012707007962696,0.14792885968219577,0.1550315267652517,0.16184949607996832,0.16906127575465044,0.17775107306122948,0.18928055530443894,0.20472695641111757,0.22554384097624777,0.2521883226834911,0.2841502785168521,0.31982746635086073,0.3562829502848955,0.390587604621092,0.419455042001895,0.4400282328543361,0.4503743773972824,0.44946308602319535,0.43831860849690174,0.41915193246541965,0.3950669806071886,0.3694290134557032,0.3449569831222993,0.3239411449118296,0.3075859823715598,0.29602453985030003,0.0,0.0,0.0,0.0,0.0,0.0,0.0,0.0,0.0,0.0,0.0,0.0,0.0,0.0,0.0,0.0,0.0,0.0,0.0,0.0,0.0,0.0,0.0,0.0,0.0,0.0,0.0,0.0,0.0,0.0,0.0,0.0,0.0,0.0,0.0,0.0,0.0,0.0,0.0,0.0,0.0,0.0,0.0,0.0,0.0,0.0,0.0,0.0,0.0,0.0,0.0,0.0,0.0,0.0,0.0,0.0,0.0,0.0,0.0,0.0,0.0,0.0,0.0,0.0,0.0,0.0,0.0,0.0,0.0,0.0,0.0,0.0,0.0,0.0,0.0,0.0,0.0,0.0,0.0,0.0,0.0,0.0,0.0,0.0,0.0,0.0,0.0,0.0,0.0,0.0,0.0,0.0,0.0,0.0,0.0,0.0,0.0,0.0,0.0,0.0,0.0,0.0,0.0,0.0,0.0,0.0,0.0,0.0,0.0,0.0,0.0,0.0,0.0,0.0,0.0,0.0,0.0,0.0,0.0,0.0,0.0,0.0,0.0,0.0,0.0,0.0,0.0,0.0,0.0,0.0,0.0,0.0,0.0,0.0,0.0,0.0,0.0,0.0,0.0,0.0,0.0,0.0,0.0,0.0,0.0,0.0,0.0,0.0,0.0,0.0,0.0,0.0,0.0,0.0,0.0,0.0,0.0,0.0,0.0,0.0,0.0,0.0,0.0,0.0,0.0,0.0,0.0,0.0,0.0,0.0,0.0,0.0,0.0,0.0,0.0,0.0,0.0,0.0,0.0,0.0,0.0,0.0,0.0,0.0,0.0,0.0,0.0,0.0,0.0,0.0,0.0,0.0,0.0,0.0,0.0,0.0,0.0,0.0,0.0,0.0,0.0,0.0,0.0,0.0,0.0,0.0,0.0,0.0,0.0,0.0,0.0,0.0,0.0,0.0,0.0,0.0,0.0,0.0,0.0,0.00021143274075122878,0.000203774900284438,0.0002024146938745479,0.00020718852308721847,0.0002162040348395658,0.00022697718951651216,0.00023709736327790371,0.0002444759569094184,0.00024959729096984674,0.00025368006270084213,0.00025938487400576043,0.00027041982627136945,0.00029031680384433527,0.000323207584001236,0.0003705917907142643,0.00043141678941380944,0.0005018247904292654,0.0005751397552651469,0.0006437118129457517,0.000698328901772298,0.0007303494785154732,0.0007332297545871616,0.0007037068765867988,0.0006429348404248806,0.0005552601375850815,0.0004482170122408861,0.0003315455103352166,0.00021586744066399654,0.00011149454943264845,2.629725227131701e-05,-3.479988554944454e-05,-7.013873391672829e-05,-8.110670029654385e-05,-7.150265807651747e-05,-4.7081833758986885e-05,-1.4315270092391484e-05,2.063906440957187e-05,5.256966637728525e-05,7.847149259114242e-05,9.673153314864469e-05,0.00010732186536930258,0.00011141686273587203,0.00011043727796785975,0.00010695646858658446,0.00010272428244984604,9.887537721830773e-05,9.585413330903602e-05,9.307252267396079e-05,9.055416145097863e-05,8.778815374833174e-05,8.439641881717969e-05,8.029140388220003e-05,7.528003269818972e-05,7.040873754081714e-05,6.65032003784475e-05,6.428287233883493e-05,6.404828102945191e-05,6.481321806626495e-05,6.591465870227086e-05,6.534015208702396e-05,6.034378279721518e-05,4.78051581767038e-05,2.4090958994330386e-05,-1.204264244163213e-05,-6.0756677667909634e-05,-0.00012014943835546151,-0.00018624967202956168,-0.00025427770674559376,-0.0003169494827782298,-0.0003681378062210326,-0.00040328310184205133,-0.00042030450223582707,-0.0004208930260910898,-0.0004073141317741944,-0.0003846071214872088,-0.0003583545822159618,-0.0003333190629057402,-0.0003132209450888065,-0.00029747851399886533,-0.0002837763624736814,-0.00026817490012640477,0.0,0.0,0.0,0.0,0.0,0.0,0.0,0.0,0.0,0.0,0.0,0.0,0.0,0.0,0.0,0.0,0.0,0.0,0.0,0.0,0.0,0.0,0.0,0.0,0.0,0.0,0.0,0.0,0.0,0.0,0.0,0.0,0.0,0.0,0.0,0.0,0.0,0.0,0.0,0.0,0.0,0.0,0.0,0.0,0.0,0.0,0.0,0.0,0.0,0.0,0.0,0.0,0.0,0.0,0.0,0.0,0.0,0.0,0.0,0.0,0.0,0.0,0.0,0.0,0.0,0.0,0.0,0.0,0.0,0.0,0.0,0.0,0.0,0.0,0.0,0.0,0.0,0.0,0.0,0.0,0.0,0.0,0.0,0.0,0.0,0.0,0.0,0.0,0.0,0.0,0.0,0.0,0.0,0.0,0.0,0.0,0.0,0.0,0.0,0.0,0.0,0.0,0.0,0.0,0.0,0.0,0.0,0.0,0.0,0.0,0.0,0.0,0.0,0.0,0.0,0.0,0.0,0.0,0.0,0.0,0.0,0.0,0.0,0.0,0.0,0.0,0.0,0.0,0.0,0.0,0.0,0.0,0.0,0.0,0.0,0.0,0.0,0.0,0.0,0.0,0.0,0.0,0.0,0.0,0.0,0.0,0.0,0.0,0.0,0.0,0.0,0.0,0.0,0.0,0.0,0.0,0.0,0.0,0.0,0.0,0.0,0.0,0.0,0.0,0.0,0.0,0.0,0.0,0.0,0.0,0.0,0.0,0.0,0.0,0.0,0.0,0.0,0.0,0.0,0.0,0.0,0.0,0.0,0.0,0.0,0.0,0.0,0.0,0.0,0.0,0.0,0.0,0.0,0.0,0.0,0.0,0.0,0.0,0.0,0.0,0.0,0.0,0.0,0.0,0.0,0.0,0.0,0.0,0.0,0.0,0.0,0.0,0.0,0.0,0.0,0.0,0.0,0.0,0.0
