0.07716242868075832,0.07102855347845426,0.06404055894383906,0.05709562460125374,0.051137145891877386,0.04687560727241708,0.044632530825198,0.04423366274498892,0.04495256469667305,0.045802780790842434,0.0456713559919768,0.04366305645978353,0.03943580744001274,0.03339919999359819,0.027109919606850795,0.023062807984406856,0.024446602673852413,0.034637952135036544,0.056435252416889715,0.09168779640042214,0.1404850362308632,0.20084378079204113,0.2686808421701883,0.33800171399717505,0.40215514432856203,0.4544321420580414,0.4891869162378897,0.50272373220534,0.4936336301609097,0.4636853055887379,0.416995150474959,0.3594395384207688,0.2976523167990652,0.23767431629615168,0.18484555310818057,0.14252843966650433,0.11200255592986254,0.09258090139279038,0.08175592316492929,0.07680162119405058,0.07475747803176935,0.07322190947383159,0.07071020829655235,0.06648340662746208,0.061165457559870295,0.05574834189980323,0.05135248514813833,0.04883951520031433,0.04835729996663727,0.04990546608919254,0.052876470788801845,0.056452801640299234,0.05987553935916377,0.06252845566786783,0.06449496426656792,0.06613503662157387,0.06805961666422919,0.0709115635180132,0.07506533211864744,0.08071887175453409,0.08761467391303489,0.09519534370311858,0.1027894354112898,0.10979361171487613,0.11604612336848921,0.12177950007723942,0.12766494586436672,0.1346673073045664,0.14377133664588518,0.15576844173938423,0.1709009220748271,0.18875568654104058,0.20828692031197166,0.2278730124951676,0.24615070033826408,0.26170298573511463,0.27365596575038165,0.2819065333193769,0.28689544974520254,0.290352227068482,0.29365686513209854,0.29790984328968023,0.3036282452243699,0.31043276229093003,0.3176247634933597,0.32364372816658105,0.3267224909531549,0.3253499571293629,0.31862661218594784,0.3066675027265436,0.2903701843792677,0.27128639457612946,0.25126019511779957,0.23196995651343352,0.21472724703847196,0.2000668934280329,0.18779819682813756,0.17717043310623629,0.1671176931729527,0.15672013914210733,0.14531127045300296,0.13268813424311413,0.11912812153112465,0.10522599677425931,0.09186410178101773,0.07978896707318293,0.06948812175119234,0.061085809956013024,0.05428332251005672,0.0486534710290147,0.043567541969115144,0.03845327955263989,0.03294857418590435,0.026914010441057828,0.020677897370744235,0.01464010253488798,0.009239177003588422,0.004811338415795678,0.0014013260199624367,-0.0009720196249778587,-0.0026526775815712104,-0.004096130221973756,-0.005711809918840739,-0.00785057288572929,-0.010269979453868133,-0.01272539583428498,-0.014843314413258861,-0.016234958253477153,-0.016787313343935486,-0.016136662990284333,-0.014474774587264748,-0.012207249134532448,-0.009813481317826021,-0.007877837707697672,-0.0063115214799899155,-0.005148596856625287,-0.004258117322272652,-0.0033920043821748904,-0.0024639021095284623,-0.0009257865286354164,0.001264428710350677,0.00396172066905806,0.006901649666895987,0.00960210663206811,0.01210429576836397,0.014242648681395074,0.015936271742730435,0.017195303715966864,0.01792131384219222,0.018480773545896112,0.019009839351956548,0.019602236215255413,0.020300267920533015,0.020956579905225863,0.02169218609281881,0.022425984842719366,0.02304063771631492,0.02340523212509916,0.02330828666939024,0.022786025956025323,0.02184665089059851,0.02056986540952861,0.01909991585216071,0.01755547507960973,0.016204729613357477,0.015229648184888514,0.014748575076622738,0.01479459957922226,0.015273987134197142,0.016103852340214424,0.017148569595378443,0.018278525472506107,0.019395696552299193,0.020409498178112936,0.02133943166289546,0.022223523178488237,0.023104519883441525,0.02399679352537612,0.02483101171497783,0.025544687337685282,0.026050874219767085,0.02628015282874491,0.026219807178845936,0.025944656150854964,0.025656940532850444,0.02568762146902027,0.026463342174451752,0.028442820832315762,0.03204855473033302,0.03750660515912519,0.04481211752096435,0.053667609377620766,0.0634893475393402,0.07347877174947891,0.08273042012654973,0.09038237043631756,0.09576849421462873,0.09853587424636463,0.09868985055709804,0.09661500267038488,0.09293620347618203,0.08839856334084849,0.08371587354718726,0.07941141262746008,0.07582782502956428,0.07301626217294199,0.07080711609821345,0.0688958728480099,0.06690128909269469,0.06460289081837688,0.06186829647790479,0.05871273323241246,0.055278493179076515,0.05171884524445261,0.04835397968003645,0.04543756999537607,0.04316729443414783,0.041661113510143136,0.04085886012447419,0.0408104713060681,0.04145677862835759,0.04268883384771346,0.044333260770844096,0.04598151662327828,0.047440549891333166,0.048363218873892076,0.048355878423874274,0.04700540803154506,0.043722007470997096,0.03846275489931432,0.03130140592824321,0.022602961805736902,0.013000837971280817,0.0030502350712918926,-0.006113438685592651,-0.013568827044642167,-0.018630106163893486,-0.02100373208898342,-0.021172632298149217,-0.01941323895234685,-0.016399759075762202,-0.01284075031532108,-0.009327508159428403,-0.006520344203552422,-0.00423547070010716,-0.002233882257338333,-0.0001491486079463281,0.0023487157701266143,0.005153445045047536,0.008485675791533361,0.012184293517783582,0.016000233356769252,0.01970285455450428,0.022973256163019866,0.026068769532223316,0.029239823551771005,0.03280966495843148,0.037056993338881954,0.041976896597025096,0.0476382143270933,0.05380215233518477,0.06011636330010143,0.06623707822227509,0.0718724087930687,0.07716506855195393,0.08245333010550498,0.0883094908714777,0.09541716310566817,0.1043523456843642,0.11554829628642362,0.12899584900366898,0.14424179586370037,0.16045042227854314,0.17653860265749427,0.19154763374143946,0.20476000900377495,0.21595322338709155,0.2254836814514181,0.2341804753499937,0.24321326658866688,0.25362382379994763,0.2660229017145317,0.28033263848539225,0.29568324457711376,0.3105930075533535,0.0,0.0,0.0,0.0,0.0,0.0,0.0,0.0,0.0,0.0,0.0,0.0,0.0,0.0,0.0,0.17538587095290692,0.1776822573467663,0.18044494114763435,0.1829692660293667,0.18516361098796802,0.18675055204088997,0.187630381173326,0.18793885486098938,0.18764478041648183,0.1877023136865612,0.18881136869998644,0.1914981281096426,0.19586690556761482,0.2009673553330452,0.20606888426200423,0.2095549845086873,0.2094608156913203,0.20379495627424024,0.19045955486112384,0.16912267345314755,0.14024173426868913,0.10548948023634416,0.06755492135753262,0.02921321594840755,-0.005771038993988136,-0.03459387269097267,-0.05561269179029156,-0.068685113559175,-0.07566398144593531,-0.07848869313501074,-0.07987383327209423,-0.08219196987465939,-0.08683038249905989,-0.09428740680569532,-0.1026423380447756,-0.1092312508775548,-0.1109330247794994,-0.10497565143894476,-0.09013342911236,-0.06572534013069098,-0.033020343748831234,0.005414480324202679,0.046264342593711254,0.08571895483252538,0.12148977636704958,0.15203994850299743,0.177098869707733,0.19750433662636724,0.21440173228996431,0.22999206108592404,0.24588554788367517,0.2630591501850707,0.2816802601516685,0.3007757964362371,0.31969231029888523,0.3373361315168519,0.35285017923821266,0.3658561836769698,0.3761676510051604,0.38485214297793496,0.39290430712392105,0.40125215598071917,0.41046122200820356,0.42019416974443513,0.43034351261046105,0.4401078108368252,0.4485853586103326,0.45506626033943737,0.45890224899339194,0.46071467708699887,0.46122616318640824,0.4613509516682304,0.4618912053655935,0.4629967383140291,0.4648400197056665,0.46693765616840516,0.46850674316195096,0.46871615039174963,0.466761708972644,0.462570732172278,0.45652998920657467,0.4494133147710877,0.44212080421455086,0.43522184926423035,0.4292096786189047,0.4241536129217797,0.41976670774859043,0.415525458037352,0.4106907358226288,0.40490555770471953,0.39810806831543305,0.39054664441733866,0.3826645451938102,0.37471090518191147,0.36728295516442344,0.36065173759044017,0.35487418376785373,0.34980363235026846,0.3448517985212651,0.3400393262653851,0.3351338897601586,0.33000399379210305,0.3246448624920421,0.3188280479913771,0.3131770242882396,0.30794945831056053,0.3033491077971308,0.29948609263381576,0.2959767530906297,0.2932155933877302,0.29102885006578655,0.2891705067299885,0.28739189278889316,0.28509730179827786,0.2827318803656336,0.28029394373632904,0.2778056719985082,0.2752976929439706,0.2723629975609072,0.26958424059553904,0.26692871719251526,0.2643059932411881,0.26162728619768666,0.25843103761610103,0.25535519567706694,0.25251620602726954,0.25002196466203147,0.2479568794514027,0.24593518319666946,0.24453462472927626,0.24366827426365406,0.24315135487851425,0.2427645693893304,0.2418969776788049,0.24099293959450194,0.23999692657422136,0.23886594696066465,0.23757225932725803,0.23569321020991765,0.23377473153661116,0.23182686727906912,0.22983201284546342,0.22778039873731729,0.22529855155919337,0.22298457720518322,0.22095407765452127,0.21928190502142808,0.21798853814737654,0.21664343033014083,0.2156594853814146,0.21493943882899336,0.2143487576469243,0.21376196235222322,0.21272939771267332,0.2117141661156564,0.21079305147005323,0.21004621570637588,0.20953538655706988,0.20893381050840248,0.2086669971912171,0.20870304591427122,0.20895373523995922,0.20930510211539255,0.2093016595126961,0.20929599953813036,0.20927083031456112,0.2092064539341883,0.20907481767371527,0.20849569110313615,0.20784873641741827,0.20713007462038174,0.2063312399267584,0.20546053818939017,0.20406278589000715,0.20278683801166655,0.20187312945265326,0.20152839422314398,0.20184625870506506,0.20210027657098878,0.20276461887605285,0.2037373232336823,0.20489743658975165,0.20612868360318917,0.20715321556791197,0.2081522697905305,0.2090432713113481,0.2097787042249253,0.21041110850131323,0.2114285933764314,0.21294192088411368,0.2149655734283229,0.2173879791608321,0.22001398316005005,0.22272101384883686,0.22532338329542037,0.22751003001371567,0.22900056052971063,0.22961685781878682,0.2292163956897758,0.22810222794025772,0.2264352257139971,0.22439920244103295,0.22218443748096622,0.21974391771534993,0.21758960360708512,0.21594163201130293,0.21497073477213138,0.21475201714314562,0.2148362201135565,0.21538682446526325,0.2160490875115319,0.21635390966700246,0.2158668282193075,0.21398516478778626,0.2115462490680572,0.20977354582791696,0.2106973793720626,0.21698163929546935,0.2310228435597799,0.2558501616186446,0.2929953288016995,0.34215447175387925,0.40062377490279316,0.46256732252189253,0.5209134385865136,0.5666645767147173,0.5905084050184154,0.584265910510117,0.5418163893318937,0.462080953752012,0.3482195862619415,0.20806938783698345,0.05333372938521372,-0.10248120427543764,-0.24438369711298044,-0.3595324995770389,-0.43870517408949716,-0.4775984517396895,-0.4777832850743947,-0.4445640543181275,-0.3871066048127702,-0.3161703573364165,-0.2421507906603828,-0.173893692729686,-0.1160617376137554,-0.07023419727840213,-0.03494305222497915,-0.006703129581076085,0.018222528113764055,0.04406001334552267,0.07325924611457274,0.10648992650985283,0.14274218167262528,0.17940754352897284,0.21437855439251433,0.24550316999019656,0.27150108717626514,0.2921874929263266,0.30797596477248734,0.32078135667642327,0.33234300995815086,0.34410436084918394,0.35687291302647645,0.37032125333488514,0.38430400557210515,0.3979913733178256,0.41057139758255845,0.4215583331266262,0.430600550007712,0.4386128671934585,0.44646014281022933,0.4549760970770337,0.4646326304776168,0.47486645530568666,0.48551377381534966,0.4954015429415586,0.503177345527866,0.5077069278286074,0.5078795018459874,0.5045834086698331,0.49864037026097763,0.49125498203811024,0.4837011326872999,0.47673795375511385,0.4711043127549569,0.0,0.0,0.0,0.0,0.0,0.0,0.0,0.0,0.0,0.0,0.0,0.0,0.0,0.0,0.0
0.5043722314396987,0.6281970595330638,0.7427436833648803,0.8365424357601441,0.9002813347150794,0.9283298425804756,0.9193573800693944,0.8771995227309822,0.8094117055893921,0.7259835833521862,0.6375056865898933,0.5531009237677258,0.4798509909571318,0.42132369797369,0.37775552445694843,0.3466815305993109,0.32374038125337107,0.30475405667493793,0.286042459332922,0.2653712668650925,0.2421885932454105,0.2172028449062083,0.19245322949929097,0.1700098937871883,0.15150498015298558,0.13769565589151017,0.12819953244777432,0.12206105091027722,0.1177130853840695,0.11358917599736201,0.10856651995493363,0.10217549772672647,0.09492487100084153,0.08784952932353002,0.08227820543870291,0.07943738401835708,0.08006429173878249,0.08429913923248365,0.09149655617936847,0.10046444409317287,0.10979975954080753,0.1182647977118645,0.125210314434363,0.1306278119879805,0.13521032371294928,0.14016213506325795,0.1468528870207028,0.15646511867929577,0.16951615905370784,0.18571512250732655,0.203974687539373,0.22239697300409705,0.23952815740735137,0.2535475811608973,0.263136470662857,0.2677872400154881,0.26744386828063527,0.2640956109810522,0.259117281788229,0.2537895100106097,0.24905310879113432,0.24502730214808685,0.24213266372220685,0.23954900112516475,0.23603884333740507,0.23031897756678055,0.22125985213052726,0.20879653533014705,0.193165731630621,0.17518237930454134,0.15607494922978013,0.13710276494492785,0.11970834777516146,0.10465876748444004,0.09214710032880356,0.0818309208927797,0.07292683518244364,0.06469955201064753,0.05635872050551263,0.047388646498482234,0.0376678796366897,0.027422809389196574,0.017310147801554064,0.007971899206525003,-5.747984989272706e-05,-0.006495161619400302,-0.011408213831380954,-0.015064098588459028,-0.01800511844166826,-0.020813752335967824,-0.02393600188239075,-0.027596320849429805,-0.031573878447166054,-0.03550923234302404,-0.03892604914037955,-0.0413768421453812,-0.0426374447256443,-0.042559155241314574,-0.04140593886109747,-0.039645884029709096,-0.0378006157414304,-0.03638811003114997,-0.03542379266326388,-0.03489596930762614,-0.034602566162263454,-0.0342243893374796,-0.03357492306713858,-0.03217037799750773,-0.02999889401724176,-0.02725853665264171,-0.024273909987122425,-0.021533411368046058,-0.019055212873585647,-0.017010816938223813,-0.015454817391189089,-0.014323430636765255,-0.013616928175379708,-0.01291322094767976,-0.012084580754166643,-0.011089118066157366,-0.009957992963729494,-0.008890076331204037,-0.007805157172531795,-0.00681683663852523,-0.006045142893524297,-0.0055925552906937355,-0.005615834501393062,-0.006010570546362347,-0.006727107943217526,-0.00767082389698087,-0.00871367316207612,-0.009813114597842112,-0.010742682206394912,-0.0113958068899827,-0.011740075825453342,-0.011834791033458506,-0.011925208080680105,-0.012110206470668235,-0.01251058095680553,-0.013175361078723651,-0.014063121156444239,-0.015121679342771647,-0.016108098644147355,-0.01676815621920926,-0.016874747167177302,-0.016291451279429974,-0.015058335936723387,-0.013275270318082805,-0.011115480131210376,-0.008780347122334251,-0.006453449210386894,-0.004305247805444918,-0.0023577785189276747,-0.0005299194158210564,0.0013291733455815945,0.0033845528586561886,0.005719083298002465,0.00840022764099312,0.011422540228018991,0.014710912479417687,0.018136933578820198,0.021501431130983413,0.02469470956281137,0.02765299508591847,0.030372282065389496,0.03288931429898421,0.03519990529318241,0.03737854338191954,0.03946369353906959,0.041469637894553574,0.04339269158924394,0.045175593546193625,0.046913376021806896,0.04876521958767165,0.050986011786375234,0.053896068879503656,0.05775320526247164,0.06286508899838467,0.06936039395624197,0.07714400540432796,0.08585159313362416,0.09480212603488848,0.10323725106756951,0.11032899764115489,0.11535035838296226,0.11780711738774464,0.11748155692669388,0.1146017021474911,0.10970894266468753,0.10356815586713013,0.09701527368213932,0.09074588361162828,0.08534985777848547,0.08113887036733157,0.0781573411378822,0.076223429976534,0.07494738972922235,0.07400728116975956,0.07312048512877266,0.07211954571382037,0.0709599977802297,0.06960984323784798,0.06825507411136125,0.06706637675107575,0.06618869933304324,0.06569656558392539,0.06546453640872306,0.06549492637856524,0.0656960593957621,0.06597135830273536,0.06623873297642179,0.06626982647971023,0.06621889054230753,0.06619715672440424,0.06634537033019783,0.06678090036891818,0.06731242199609805,0.06814297002637994,0.06928407117332723,0.07070905965094916,0.07234533598267946,0.0737858220180347,0.07514265924883537,0.07634753953665668,0.07731423209240532,0.07790977159644075,0.07762292855730135,0.07657910229188405,0.07478522634542101,0.07237661068772329,0.06961019640306382,0.06653546999636817,0.06381570151832139,0.06187330386789063,0.061007110941024366,0.06131062120968687,0.06238879465269197,0.06418378467751072,0.06633254973838917,0.06849165685028939,0.07043431781478877,0.07193004812662782,0.07330257246762514,0.0748390253854254,0.0768495147577329,0.07955801441989067,0.08291817802953641,0.08690968347291592,0.09124004519507264,0.09554327117700481,0.09951036733635675,0.10295566302023061,0.10612107595672736,0.10945667310666692,0.11364358208531128,0.1194627202528228,0.12758514593630427,0.13847753267975338,0.1520984658724677,0.16789725816744097,0.1848830267125729,0.2017992168460369,0.21746323438234158,0.23093294669987965,0.24179881250577698,0.25030333317232295,0.2572833391166631,0.2639745520214747,0.27155748953007336,0.2808275445448666,0.29190722101582667,0.3041168208622109,0.31613269622650053,0.32615508204011695,0.3323918904971978,0.3335111088593304,0.328964504853256,0.31921606327637075,0.30548395494874503,0.28949657315537136,0.2730739353743457,0.2576865959966753,0.24422638147002648,0.2327387844870853,0.2225696040551899,0.0,0.0,0.0,0.0,0.0,0.0,0.0,0.0,0.0,0.0,0.0,0.0,0.0,0.0,0.0,-0.032519911457572076,-0.20565567632526674,-0.36447913723295094,-0.49415455552946147,-0.5835730040121361,-0.6271293825796814,-0.626311789601168,-0.5866954173069157,-0.5188391985394226,-0.4353677918140982,-0.3485454726264654,-0.2689691148456033,-0.20163084792611072,-0.14793075136170672,-0.10557987437952504,-0.06996156267324935,-0.03661965774402724,-0.000286566701542936,0.04163539841702579,0.08937479715271272,0.1410478499032741,0.19266305597605848,0.24156976523169893,0.2851004049483892,0.3218895156830455,0.3520572624797975,0.3762300844944231,0.3973226516059654,0.4176446545601779,0.4389423284302523,0.46198982347132206,0.4857765330516929,0.5099692650520858,0.5331818609842498,0.5541064511294362,0.5719223844628467,0.5858321188119291,0.5972275960701762,0.6073572286350781,0.6175421601897321,0.6287373727066838,0.6404899423974673,0.6531477868720612,0.6657203315984426,0.676913811488156,0.6855523609505209,0.6901979875926044,0.6917927986279863,0.6911456085459388,0.6894541049004507,0.6879278335490092,0.6869721076232599,0.6871701660257901,0.6883008181126964,0.689660670515498,0.6903033061474974,0.6892359808307629,0.6857427133955394,0.6801553704000634,0.6733584376259129,0.6664164341435223,0.6599324800786659,0.6543474232261147,0.6497919762102603,0.6460236350335609,0.642529562139547,0.6383159877764258,0.6331874395361673,0.6271112518313293,0.6203668153157222,0.6134040749822257,0.6061783035932581,0.5994875070061549,0.5935995174640077,0.5885752783546028,0.5842785878249042,0.5798430413081176,0.5756295897807454,0.57148190352334,0.5673147478696624,0.5631144194443669,0.5582737049976502,0.5536264992795631,0.5493200712688638,0.545431067007522,0.5419502510638297,0.5380938910419739,0.5345872292009036,0.5313334946536407,0.5282009724194022,0.5250722951443483,0.5211617321762942,0.5174016842180971,0.5139239479670208,0.5108343854866226,0.5081943392248669,0.5052548697202665,0.5029271848594801,0.5011351894794139,0.4997004840237938,0.4984073770510097,0.49631943374115584,0.494290938756433,0.4923282617220727,0.49043679039369714,0.48862041487715246,0.48613145652726003,0.4839234318108911,0.4820006429602841,0.4802866253840284,0.47867085685396393,0.47633260884223905,0.47415520263703087,0.4721678029037553,0.47036620919850813,0.4687212988307754,0.4664866515736546,0.4645155020379954,0.4627877034080409,0.4612256569555436,0.4597352508069925,0.45755294279796516,0.4555317830986173,0.453723712617317,0.45213951907692357,0.4507492027832096,0.4488084617393274,0.4470928069925988,0.4455634151786699,0.4441385930154715,0.442734143205025,0.4406455736621036,0.4387060257197344,0.4370217398882206,0.4356758931715372,0.4347190836268404,0.43353319536875007,0.4328803381691576,0.4327281715635832,0.4329539633959282,0.433380387623856,0.4331970240733826,0.43302494175231604,0.4328053010778392,0.43248765605359646,0.43204169162087164,0.4308477973379515,0.42969365145637045,0.4286674425083063,0.42780765639327534,0.4271040324550287,0.4258994683378512,0.42487109248979027,0.4239771255416967,0.42311913831883097,0.42216637328918577,0.42038781874659054,0.4184222255123368,0.4162703047785558,0.41394951729218465,0.41151076999306685,0.4082973988986182,0.40533762600694245,0.4029524485565039,0.40141026519278383,0.4008551666969479,0.40035261666314353,0.40073392558524495,0.40192747980942745,0.4037769479851221,0.4060516415923052,0.407895748230372,0.40965635109710113,0.411012780154574,0.4116315911593406,0.4112481164876626,0.4095327652179233,0.4069153365746512,0.4034896209701023,0.39942329124652676,0.3949757796753634,0.39015866208477157,0.38586279488276115,0.3824190855817756,0.3800195135752893,0.37870344286306434,0.37790168771557037,0.3780063997137819,0.37875746054941883,0.37984103811166164,0.38096830379505864,0.38139727407728136,0.3817352421549593,0.38208793412477965,0.3825724440498631,0.38323316472705304,0.3833411625628307,0.3833576935126335,0.3829555168857597,0.381743446451043,0.3794513524572991,0.37549395382901524,0.37132220081584194,0.36844752699520394,0.369037472744838,0.3756695401875451,0.39018166200363796,0.4153655765314811,0.4521561812257461,0.49974643068179786,0.5552489729525238,0.6129672825449654,0.6670569644530553,0.7100851443796257,0.7347108271900518,0.7348284057175025,0.7059242462865896,0.6481927556804578,0.5647218503306393,0.46196036823564607,0.34896034140982407,0.23545255131199666,0.1326156496582586,0.04942533063245284,-0.007946140234896145,-0.03690772289785437,-0.03929893128652953,-0.018713268455436954,0.018371177772090727,0.06452574030103125,0.11269039006024077,0.1566053471743128,0.1935911689325997,0.22266404633224207,0.24481087321849584,0.26228850301833595,0.2771391763069902,0.29241931068200383,0.30969130634649455,0.3293779023521987,0.35085316536486155,0.3721754340884224,0.3925341203002285,0.4107923588084686,0.4263843742580191,0.43941782771138715,0.4499648285471512,0.4597122924318792,0.46973797250603777,0.4807697208185018,0.4929832702162729,0.5053806228245553,0.5177970159108315,0.5293030923079534,0.5390571606628698,0.5465487127211588,0.5511596663887921,0.5539838422138721,0.5558597956956491,0.5576724303434609,0.5600828019492998,0.5626637318516483,0.5660032460219898,0.5695068593119922,0.5723227154066657,0.573616891177441,0.5720736278428267,0.5685721832796733,0.5634735514488464,0.5574129574222054,0.5511375176762591,0.5447537854411718,0.5393156904678852,0.5349919449284236,0.5315908223534969,0.5286581441750771,0.5252876341936626,0.521298928425223,0.5166213851932074,0.5114530593135087,0.5061409945896684,0.5006002080745001,0.4954776859664278,0.49096403069803807,0.4870675165988602,0.0,0.0,0.0,0.0,0.0,0.0,0.0,0.0,0.0,0.0,0.0,0.0,0.0,0.0,0.0
0.4486182367942536,0.582802019045246,0.7068814458604755,0.8084066140673709,0.8772643928869419,0.9073263651458581,0.897237410785909,0.8509953073563855,0.7767512596845568,0.6853285571213741,0.5882512699426362,0.49562731256514636,0.4151339977400256,0.3507862680835941,0.30298644551219617,0.26917617473941424,0.2448069699143717,0.22518100400893365,0.20621327436163678,0.18534465136172204,0.16182387268616982,0.13638291888881957,0.11099436253971726,0.08784570140268512,0.06871296308053879,0.054471570632925424,0.04487195955631585,0.03884257280545806,0.034747921737551264,0.030933869863185262,0.026198492679668253,0.020096924950477324,0.013030153824647915,0.006067537494853603,0.0006022019725285576,-0.002074585273588926,-0.0011156943094212648,0.0035198912299342984,0.011155926383480674,0.02055928802828146,0.03029181789240914,0.03917316802442568,0.0464677698884073,0.05221701910560276,0.057188489208646484,0.06265822105840718,0.07011148912192658,0.08062753701537548,0.09469159004941598,0.11196346867901832,0.13130194622945332,0.15081661231016366,0.16896090993893437,0.1839190990680521,0.19440335392183813,0.19994567140049943,0.20055041355668718,0.19817782475703047,0.19418118294388148,0.1898071166794261,0.1859676591162814,0.18281461046609918,0.18074405370085625,0.1790099469694052,0.1764816561908596,0.1719896468320634,0.16454045805442277,0.15403895445962096,0.14072021318124497,0.12534279178272595,0.1090230270721732,0.09290664829658035,0.07818763383640301,0.06548753523883696,0.05490374847429299,0.04605640731228302,0.03822126468481637,0.030658712142330742,0.022700684428534647,0.013976707332022227,0.0044981692990769305,-0.0053878363610306065,-0.015051587806457871,-0.023844626812988646,-0.031257899336240624,-0.03706006871412915,-0.04136463594667451,-0.044552764376668004,-0.04717450858084229,-0.04977676267039455,-0.05274293125785435,-0.05621938252904681,-0.05997599964872435,-0.063592962310555,-0.06655741677456883,-0.06842579380157954,-0.06901999095834986,-0.06830599080921673,-0.0665952716503784,-0.0643729103418619,-0.06214544379449293,-0.06038412013761572,-0.059078928918839715,-0.058113877362565916,-0.05717716797445072,-0.05586509378740633,-0.05394802855754154,-0.05099944801262555,-0.047048646132027604,-0.042359514929879265,-0.03734121303931745,-0.032565547883252305,-0.028178860694375443,-0.024401538877731298,-0.021304279491383124,-0.018817332291228575,-0.016911298341540926,-0.01518587367897981,-0.013476722644761699,-0.011697865764785879,-0.009835469492402925,-0.008051079143462628,-0.006232173433063885,-0.004411181560740223,-0.002613435202161054,-0.0008536066935772763,0.0007420459734334069,0.0022985083064902237,0.003853719004526835,0.005442659699099709,0.007084630029960515,0.008679091757351366,0.010281182555569634,0.011884666814936018,0.01347444845403587,0.015022866753498308,0.016421420815375218,0.01767897004715865,0.018825797117743206,0.019920952150468258,0.0210292827879442,0.02214994102824441,0.02330922681926426,0.024523147255984104,0.02578013804691452,0.027035698822390097,0.028197328443824488,0.029176841120864785,0.029960464623570472,0.030583011559667958,0.031116026476211003,0.03161548009762712,0.03217110570809877,0.032900020319380004,0.033895711211235136,0.035196354130031915,0.036722474749443686,0.03838559559778263,0.040089568006565046,0.041742589130495396,0.043278772798723435,0.04422145849808781,0.04505490628512552,0.04621324819526736,0.04819191129859424,0.051361191467414954,0.05492812048143053,0.05947151201963039,0.06500295308847769,0.07143546884958374,0.07853692846982528,0.08528103825119245,0.09166477622996415,0.09737701662654849,0.1021425213401902,0.10571266547223558,0.10753157877252245,0.10780818905856145,0.10678638585324907,0.10492714752944038,0.10281912276463892,0.10077985800380528,0.09943968800524075,0.09901575469043922,0.09935554328481311,0.09992558005704226,0.09976427027498014,0.0981773715878472,0.09463155582969854,0.08907790153128908,0.08205359227364435,0.07446154621505463,0.0677973835720163,0.06340816877936034,0.0621773788415475,0.06418160449024644,0.0683913089379276,0.07324989236423642,0.07671014643031208,0.07695915774135835,0.07312894527450858,0.06572422522692357,0.05761498024139456,0.05349523436863641,0.05947588087223476,0.08207628605877068,0.12665050922112422,0.1967980961917432,0.2925903653354492,0.41008431131186157,0.5413634013201035,0.6750926887659827,0.7988284984776752,0.9003021493872584,0.9695734017804948,1.0006505165814363,0.9921563060105246,0.9482039172413985,0.8768827886313663,0.7888747002924212,0.6954959929087513,0.6065540365961608,0.5295306375044714,0.46817893709565606,0.4226819327903413,0.39034146923606616,0.3665727767340604,0.3467742356392,0.32697431560466567,0.30477693865772304,0.27963602334510773,0.2525092772949339,0.22569058650343934,0.201627186027286,0.1823425221623178,0.16893057745414927,0.1612648255866822,0.15839188621092398,0.15855431438433013,0.15979866451915797,0.16048521350794054,0.15962704026002023,0.15727996492434623,0.1542595325508261,0.15197476309990765,0.1520398495617318,0.15581215289830638,0.16411875778222054,0.17687576008341502,0.19312272580368003,0.21121411276066354,0.2291419876064375,0.24507471845819856,0.2575817662012572,0.26597191619602345,0.2703883759595953,0.2716704363541557,0.271201900755597,0.27035498994265056,0.27020017802716434,0.27124530894184423,0.2730454143481721,0.2753402954014036,0.2768603550779778,0.27617899706797255,0.27210224192409316,0.2634368464515319,0.25116277402949,0.23579038840951108,0.21822735626655432,0.1996675523671189,0.18100883421523262,0.16406917042866137,0.14949948465212337,0.1373655651169444,0.1272328628101446,0.11810813814127671,0.10956211286638168,0.10085072777046715,0.0914956779572355,0.08140601374356508,0.07069131044267714,0.06022018429216785,0.050611464678385135,0.042333001401098046,0.0,0.0,0.0,0.0,0.0,0.0,0.0,0.0,0.0,0.0,0.0,0.0,0.0,0.0,0.0,-0.06144745188780352,-0.22949920324976036,-0.38372104869003826,-0.5097693429006773,-0.5969257311603351,-0.6398226773413305,-0.639970397517661,-0.6028442576796789,-0.538717121684186,-0.45980764247803724,-0.37791073967840466,-0.30311749490541184,-0.24005240564663385,-0.18983119301818838,-0.15002011841152035,-0.1159988020154789,-0.083385831237592,-0.04715760565527155,-0.004961270363556376,0.04319946843419646,0.09526120370897001,0.14717417218955764,0.1962111994301531,0.23973164323131488,0.276435819630339,0.3065212094334189,0.33072887274108015,0.3519534464113656,0.3724971886895378,0.39407416956881064,0.4174162732585712,0.44152218401375937,0.4659824519759423,0.4893932345538272,0.5104423263824146,0.5283113370837237,0.5422480652690921,0.5535913437082746,0.563571902542534,0.5734989682100116,0.5843348998058668,0.5957015274134665,0.6079746432972342,0.6202692637112253,0.6314163705906637,0.6403584625280101,0.6457706566336914,0.648579424677992,0.6495648894419357,0.6498362192757601,0.6504618460680665,0.6516258866190137,0.6537593107593769,0.6565178155434293,0.6591174072789072,0.660565229608123,0.65972627512633,0.6559923032539297,0.6498007581731879,0.6421841885097471,0.6343686283504375,0.6270135053206254,0.620715287418628,0.6156869039128807,0.6116993730817639,0.6081720270927519,0.6039247960352612,0.5986172043530177,0.5921191299731382,0.5846930953419089,0.5768608770750329,0.5686800830922198,0.5611366933605006,0.5546928015075052,0.5495384125648286,0.5455497270573139,0.541711085522566,0.5381734718121988,0.5345729981528745,0.5306795385624695,0.5264514944559154,0.5213664246600903,0.5164937295223333,0.5123097206668834,0.5092026824145541,0.5073532618545169,0.5059498445240491,0.5055013847186531,0.5055684914365048,0.5056340121884763,0.5052785462593455,0.503605840419009,0.5017538444331163,0.5004229965209162,0.5005640804141955,0.5032038306641743,0.5084540834055593,0.5177801785502122,0.5312008486406097,0.5480403249191054,0.5669897138942958,0.5855045834010962,0.6026486742843822,0.6167123440127855,0.6263451118599872,0.6307755971244172,0.6291081714964271,0.6229429937647599,0.6134761733753865,0.6021388275218391,0.5903483510869778,0.5785048740568206,0.5683673937050141,0.5603410583373903,0.5543413577877931,0.5499211050495384,0.5457027269465691,0.5419887462023953,0.5383715754989471,0.5346120087689704,0.5306606851669,0.525885979649135,0.5213811504298564,0.5174085296937223,0.514094644312653,0.5114002652842615,0.5084150073205249,0.5057551282858344,0.5032432631439807,0.5007225797883411,0.4981093377844217,0.49472108105628837,0.491503511489887,0.4886864938049653,0.486438687461401,0.484818410284582,0.4830885267275724,0.48186948609484026,0.4809793848180955,0.48018530559177175,0.4792836880041947,0.4775209919295275,0.4757569432692745,0.47428909326786334,0.4734923659305751,0.47374896572380737,0.47471783716029137,0.47734214411348536,0.48163036819683347,0.487307764596353,0.49384731008338145,0.49975777908611674,0.505241413350738,0.5097244273821938,0.5127333919789683,0.5139456544429555,0.5122751740888629,0.5088833437601737,0.5041621235777162,0.4986035764954306,0.49273786250391993,0.4867244511450308,0.4815170794956999,0.4772605922730838,0.4739385778053181,0.47153007056488433,0.470394918120897,0.47074076788391866,0.4723846538752733,0.47495329066620534,0.4779582553990844,0.4809262009922489,0.4836078017254893,0.4853877375900537,0.48574077719359465,0.4843864402332845,0.4811763970332173,0.4768668986360418,0.47184557197039584,0.46646738226042317,0.4610073078068636,0.4552807443219395,0.44999284585376564,0.4452370360034182,0.4410846219265428,0.4376281753804427,0.43440626510833363,0.43216445346567856,0.430819665593049,0.43002775734708565,0.4292444080291474,0.4272450099956998,0.42457193056711495,0.4216642691518744,0.41974828593671965,0.420860640677852,0.42682535931258625,0.44120810324826654,0.46614207762573895,0.5021939702110474,0.5475903340596286,0.5969326521019629,0.6438514114582877,0.6790825410202557,0.6924184369263569,0.6743200274414054,0.6168462860375122,0.5180640271339487,0.38050972255121107,0.2122979886010584,0.02643314475019928,-0.16167605040512173,-0.3338855782170157,-0.4745600431205697,-0.572251649375358,-0.6214537379410068,-0.6240880269089681,-0.5863334459845567,-0.5194700595148198,-0.4367611228517435,-0.35091133742802766,-0.2726924722896656,-0.20703100302634947,-0.1551537038011095,-0.11454105319137875,-0.0803689369150485,-0.04803492600761493,-0.012260170540146357,0.02941181470706464,0.07699266283491003,0.12838909493288458,0.17951557811439822,0.22774423146120898,0.2705588074475647,0.30686991647874085,0.3371471267808177,0.3623888409839961,0.3857472067698879,0.4095732237168233,0.4354289527082102,0.4636935698554355,0.4928322478801512,0.5218949721893446,0.548891410975747,0.5720358700209863,0.5902400129300532,0.6027095236643353,0.6110662413048382,0.616952933368472,0.6221853712059887,0.6282267448064154,0.635055143130034,0.6433600391375419,0.6522458688825964,0.6603294709889574,0.6662134766827776,0.6681487940057264,0.6669017656907166,0.663077471018545,0.657789115991183,0.6523129399088581,0.6472582357122042,0.6435364857576228,0.6412109850708684,0.6397884556509357,0.6384124031349384,0.6360705638977511,0.631867907909092,0.6258940686319555,0.6187852779880667,0.6114185403636838,0.6043465353584374,0.5980196433171077,0.5926878586676935,0.5882744151313876,0.5844246775924292,0.5802834145561167,0.5756358834108429,0.5703667673264107,0.5646107951905776,0.5586575578211674,0.5523739193306212,0.5464562134347111,0.5411759559833592,0.5366635785352435,0.0,0.0,0.0,0.0,0.0,0.0,0.0,0.0,0.0,0.0,0.0,0.0,0.0,0.0,0.0
0.6750926887659827,0.7988284984776752,0.9003021493872584,0.9695734017804948,1.0006505165814363,0.9921563060105246,0.9482039172413985,0.8768827886313663,0.7888747002924212,0.6954959929087513,0.6065540365961608,0.5295306375044714,0.46817893709565606,0.4226819327903413,0.39034146923606616,0.3665727767340604,0.3467742356392,0.32697431560466567,0.30477693865772304,0.27963602334510773,0.2525092772949339,0.22569058650343934,0.201627186027286,0.1823425221623178,0.16893057745414927,0.1612648255866822,0.15839188621092398,0.15855431438433013,0.15979866451915797,0.16048521350794054,0.15962704026002023,0.15727996492434623,0.1542595325508261,0.15197476309990765,0.1520398495617318,0.15581215289830638,0.16411875778222054,0.17687576008341502,0.19312272580368003,0.21121411276066354,0.2291419876064375,0.24507471845819856,0.2575817662012572,0.26597191619602345,0.2703883759595953,0.2716704363541557,0.271201900755597,0.27035498994265056,0.27020017802716434,0.27124530894184423,0.2730454143481721,0.2753402954014036,0.2768603550779778,0.27617899706797255,0.27210224192409316,0.2634368464515319,0.25116277402949,0.23579038840951108,0.21822735626655432,0.1996675523671189,0.18100883421523262,0.16406917042866137,0.14949948465212337,0.1373655651169444,0.1272328628101446,0.11810813814127671,0.10956211286638168,0.10085072777046715,0.0914956779572355,0.08140601374356508,0.07069131044267714,0.06022018429216785,0.050611464678385135,0.042333001401098046,0.035579164676985575,0.030098882498431675,0.025702308482993538,0.021849520576440146,0.0180016055402178,0.013788622592698713,0.008987816684589053,0.003989949696124792,-0.000798549719778541,-0.004917570631741019,-0.00800191949158815,-0.010028597910709529,-0.010924238493784,-0.011034681870272612,-0.010838931351463415,-0.010786179368050318,-0.011305493119055592,-0.012158351613886204,-0.013097195545809058,-0.013715863542353136,-0.013570439244512487,-0.01250637585527509,-0.01009153936540568,-0.006473386858356073,-0.0020513060736665335,0.0026504886003958453,0.006942509977577461,0.010773910608023487,0.013988388202827294,0.01662149319265782,0.01887141644530418,0.020833973704410733,0.023088124106241774,0.025797038969274724,0.02895626724352335,0.03241844349462519,0.03579954775360813,0.03906326153145274,0.04196168380784583,0.0442974910719495,0.04596547054394621,0.046863130289195254,0.047242364039087305,0.04726212086645171,0.047093647135056385,0.046892744894802676,0.046690348315741065,0.046674149548713406,0.04687351594687997,0.047270635040269564,0.04782001924565914,0.04839750999236813,0.049040067129234935,0.049740447132650425,0.05050212629687854,0.05132432506568686,0.052114497044425494,0.052899292784423374,0.05364313626395421,0.054301649269563566,0.054828630885714595,0.05511196839607054,0.055196463145651305,0.0551327351476037,0.054999093951302466,0.05487497640585244,0.05477117068140505,0.05473494586119837,0.054766171247387425,0.05484048638591448,0.05492132192599029,0.054962611748313836,0.054951942842576935,0.05490672080488057,0.054863902373437516,0.054861205339697246,0.054905710164864535,0.054990009792324,0.05506026592355811,0.055030759848306,0.054801088753404205,0.054270690340859185,0.05339485627748497,0.05215740224683133,0.05059940723141351,0.048822735036596523,0.04693221095446148,0.04518426908081866,0.043798652381356974,0.04297273226516814,0.04284438131978884,0.04336677219702413,0.0445898055360041,0.04638536700396759,0.04854916072739556,0.05083735722949896,0.052964936389432095,0.05482513406462845,0.056355792942890885,0.05762489874674262,0.05883033313920908,0.060257690162955554,0.0622470587845156,0.06502341132309138,0.06864899836393083,0.07297119945894288,0.07760677801658675,0.08201670620542023,0.08550679707536665,0.08738750791869154,0.08711206577867671,0.08438920489916095,0.07928879447532028,0.07215944358399026,0.06361425155949622,0.05443203000449597,0.045416636943015315,0.03731463450699948,0.030599811942625045,0.02545109941893686,0.021751994230315232,0.019129975784363755,0.017126557835822887,0.015206177704174761,0.012931623122252607,0.010078996362156296,0.006667999082906881,0.0031256595850985103,6.430353925569904e-05,-0.001761616725743355,-0.0015940015060026426,0.0011068041673042794,0.006748269801426242,0.015271391797983867,0.026182146543739543,0.03858014381507006,0.05112959512324046,0.06260152283149338,0.07169951776989796,0.0773320722945826,0.07875428913614275,0.07548317476780175,0.06789772523703452,0.056744642417336226,0.04316440326189185,0.02852188631357535,0.013974488428364126,0.0009578207403703745,-0.00957439563645215,-0.017124782867980696,-0.021710516508992053,-0.02409252615499049,-0.02480870356324722,-0.0246664326645253,-0.024361976195519146,-0.024345491390029155,-0.024987671275408678,-0.02593632543220789,-0.02682382254176133,-0.027258312356830055,-0.02698046627106626,-0.026131151145623466,-0.02473149419891196,-0.023106367410923003,-0.021604555238817727,-0.020459245004913498,-0.01978499410566149,-0.01924613538732656,-0.018408024794050806,-0.01677414131131888,-0.013938023738760739,-0.009739087369291115,-0.004249132308660743,0.002161221145405264,0.00895565222099174,0.015596365499503393,0.021728895856628943,0.027297340976785624,0.032606859482888245,0.03828256252302228,0.04513075473776752,0.05397388152851115,0.06530018118956742,0.07917911432809661,0.0951580956638044,0.11231816474870022,0.12948310382256378,0.1454458557977824,0.15926688826172206,0.17053769952278786,0.17950557475963294,0.18702353849227885,0.19434068228358606,0.2026413439719096,0.21271683821746748,0.22467494816363354,0.23783270018727126,0.25076776343319984,0.2616037876240746,0.26844725332913116,0.26984432156763416,0.2651712595694899,0.2547063756087801,0.23965653736831424,0.2218403378720115,0.20326459660006754,0.18569897711767175,0.17025413442987175,0.15728655687952284,0.14640479044588822,0.13668487163250093,0.0,0.0,0.0,0.0,0.0,0.0,0.0,0.0,0.0,0.0,0.0,0.0,0.0,0.0,0.0,-0.16167605040512173,-0.3338855782170157,-0.4745600431205697,-0.572251649375358,-0.6214537379410068,-0.6240880269089681,-0.5863334459845567,-0.5194700595148198,-0.4367611228517435,-0.35091133742802766,-0.2726924722896656,-0.20703100302634947,-0.1551537038011095,-0.11454105319137875,-0.0803689369150485,-0.04803492600761493,-0.012260170540146357,0.02941181470706464,0.07699266283491003,0.12838909493288458,0.17951557811439822,0.22774423146120898,0.2705588074475647,0.30686991647874085,0.3371471267808177,0.3623888409839961,0.3857472067698879,0.4095732237168233,0.4354289527082102,0.4636935698554355,0.4928322478801512,0.5218949721893446,0.548891410975747,0.5720358700209863,0.5902400129300532,0.6027095236643353,0.6110662413048382,0.616952933368472,0.6221853712059887,0.6282267448064154,0.635055143130034,0.6433600391375419,0.6522458688825964,0.6603294709889574,0.6662134766827776,0.6681487940057264,0.6669017656907166,0.663077471018545,0.657789115991183,0.6523129399088581,0.6472582357122042,0.6435364857576228,0.6412109850708684,0.6397884556509357,0.6384124031349384,0.6360705638977511,0.631867907909092,0.6258940686319555,0.6187852779880667,0.6114185403636838,0.6043465353584374,0.5980196433171077,0.5926878586676935,0.5882744151313876,0.5844246775924292,0.5802834145561167,0.5756358834108429,0.5703667673264107,0.5646107951905776,0.5586575578211674,0.5523739193306212,0.5464562134347111,0.5411759559833592,0.5366635785352435,0.5328904380499058,0.5291414293952432,0.5258071212046211,0.5227351796363104,0.519786784375056,0.5168579000979244,0.5132776070184562,0.5097840214632732,0.5064876263178342,0.5034821676724195,0.5008253621459433,0.4978512889490704,0.49537444149507465,0.49334889377911795,0.49163959583032796,0.49007142765458656,0.48779193597200293,0.4855816247517798,0.4834356223043679,0.48134794074037873,0.4793174931632298,0.47664184283909244,0.47424295661843724,0.472135955354956,0.4702543239380761,0.4684909672309982,0.4660528734384398,0.46376993303866015,0.46163773339870473,0.459619462824422,0.4576644412987666,0.45505147491659614,0.4526229818596317,0.45037815476822696,0.44826547494864194,0.44621798980740635,0.4435249225137173,0.4410230390609589,0.43874856978108534,0.43668453086117826,0.43477153831604604,0.43227753582549056,0.42994457123787444,0.42773049725822604,0.4255643020505654,0.42338588414542705,0.4205436001290431,0.41788397689408235,0.4155286848572716,0.41355804832121573,0.41200022997480795,0.4102071561011549,0.40888839210940114,0.4079789725643403,0.4073457804722388,0.40683054151251097,0.40568999032087955,0.404593232521907,0.4035505414148823,0.4025708180204997,0.40166085305021393,0.40023931474411795,0.39904051493603454,0.3980942354822035,0.39736925993480116,0.3967927482108339,0.39569800026031665,0.39471945994130553,0.3938192445074601,0.3929208638120729,0.3919246433714537,0.3901613116829855,0.38826032151004713,0.3862214543505655,0.3840496133136619,0.381777972597242,0.37891963140122015,0.3763032591131743,0.3741284134911972,0.37254494339439126,0.3716313018230304,0.37082078203574326,0.3707253900935246,0.37124269929624215,0.37218200205004065,0.3733092844103656,0.3737044851946779,0.37401543147530225,0.37428499936991616,0.37458904642110474,0.3749872669977008,0.37465369926808695,0.3744580870112146,0.3744986712675284,0.37482493545868234,0.37542089198367945,0.37566007403252877,0.376023540833573,0.3763309379654791,0.37634716202991964,0.37585451696965816,0.3744891852225844,0.37262888846034514,0.3703027009379616,0.367593840766887,0.36465572936152274,0.3613549162517804,0.35843815789981986,0.35611454418957544,0.35446970947731915,0.3534569417533874,0.35244059281620804,0.3517879872951326,0.3512939269511885,0.35076253398467,0.3500728114233261,0.34868012998841413,0.3473721354569027,0.34644651864202475,0.3461730642400626,0.34668868109326484,0.34730011655230125,0.34840126300159485,0.34959029975519507,0.35037138368982285,0.35033944792383004,0.34875447003744897,0.34680628000132574,0.34573563379530253,0.3473891974375163,0.35399021475439524,0.3670589199303571,0.3890788393561851,0.4209004958548117,0.46188519888676793,0.5096114620548057,0.5591611946608283,0.6056610802830903,0.6428186050885415,0.6644083726384291,0.6652327093552161,0.6413156791927288,0.592870618679562,0.5224911414903077,0.43563914272479387,0.3400100383482268,0.2438111023545116,0.15669831660968217,0.08641709463341363,0.03834197530349159,0.014787367341237473,0.014177120307217555,0.03354896020347846,0.06736587223196612,0.10922133458876478,0.15296980345612174,0.19304726553734078,0.22706775985680352,0.2540621659226416,0.2747895629462054,0.291152239571006,0.30487967065676996,0.3187191747616834,0.3341192065258218,0.3515491830802578,0.3705517883107607,0.38946527929673747,0.4076244908943994,0.42401737230047415,0.43810879142711934,0.4499513370505153,0.4595742615880323,0.468463774126713,0.47757793678996957,0.48757312870899816,0.4986144131315332,0.5098124144147407,0.5210297941247521,0.5314427111823141,0.540325197468203,0.547277489212551,0.5518250442591722,0.5550547531181743,0.5577833502153898,0.5608083715599848,0.5646425191308708,0.568732181415332,0.5733774730846488,0.5777832609465683,0.5809560737993632,0.5820075490491907,0.5797432961560413,0.5750705821905905,0.5685269351773358,0.5609386639787184,0.5532081594361228,0.5455722179607129,0.5390222243296515,0.5336044520712949,0.5289468855962184,0.5244087698230548,0.5189653953955788,0.5123843556833457,0.5046053291483702,0.49592629451926573,0.48687405433815106,0.4776176109514502,0.469031637032135,0.4614580222985506,0.4549621891842508,0.4493393388532472,0.0,0.0,0.0,0.0,0.0,0.0,0.0,0.0,0.0,0.0,0.0,0.0,0.0,0.0,0.0
0.2800781479913532,0.3485622361055523,0.41197599679235686,0.4637979554907182,0.49862338505146075,0.5130352149560313,0.5058695989663035,0.47914238199854975,0.4370321585850497,0.3852742080131645,0.33013131893356956,0.27706063825591504,0.23067658159497317,0.19352066997390557,0.1661167953084782,0.1472274229111078,0.13414379945289298,0.124263640690002,0.11506714666857956,0.1048559499167599,0.09300185533194712,0.07968427254601887,0.06624869441566728,0.054172718686392056,0.04476237323961875,0.03877628775278644,0.03609034965403012,0.036198168565076,0.03800131173530394,0.040280627279481895,0.042049936765993334,0.04271884693339123,0.04253771255204172,0.042217700918545285,0.042796872119922356,0.04532358577920022,0.05047758842481955,0.05854163638729546,0.0691405036654096,0.08139115097341215,0.09414238935587907,0.10623592273810464,0.11700497853607321,0.12630368631444375,0.13462155066583145,0.14296119293255796,0.15250972302927926,0.1644562175245765,0.17945487848635702,0.19743889012213553,0.2175487865397676,0.23808118879190518,0.2574428762134342,0.27375393934629116,0.28555340134656865,0.29213638014697724,0.29339384486828435,0.29085568242133364,0.28599015966330393,0.2803381251920705,0.2751621680301391,0.2709421228288425,0.268040788490994,0.265763200798883,0.26291992847367557,0.2581879559133009,0.2503479483056368,0.23907290010812351,0.22453985014875483,0.20756985275069093,0.1894348692380876,0.17143976608887201,0.15499550517579985,0.1409568870054522,0.12961004405329218,0.12068178256287433,0.11338435981047634,0.10693983473958513,0.10055482197264867,0.09369585329847817,0.08619476883597735,0.07815400504479005,0.07013764457143064,0.06274291121904854,0.056497241116540614,0.05170775510908036,0.04829243765067186,0.04606941638074858,0.04458384573030282,0.04332571335288432,0.0418772608328851,0.03991617948756756,0.03762691228450098,0.035288650852809036,0.033299710353082275,0.03204676655668984,0.031648053356837624,0.03232022655057361,0.03386907543948462,0.035920782844980535,0.038045327883702046,0.03972762500775569,0.041047109411770276,0.042043860572143765,0.042933743224518345,0.04404388921071426,0.04551493027300486,0.047897995107308765,0.051222037500951716,0.05528573848776447,0.05972585561483686,0.0639378879049137,0.06783300209701007,0.07111974941423004,0.07364148978715186,0.07540782201895946,0.07641223414212205,0.07717901922098115,0.07794575193409847,0.07886593527870894,0.07998876451357757,0.08111383975685552,0.082330148106165,0.08344793543923518,0.0842537087212749,0.08456970700819567,0.08416982937367817,0.08323388813259133,0.08187752535837735,0.08027276960410379,0.07860841003371796,0.0769387124666651,0.07550315767296918,0.07434328508925946,0.0734217773741932,0.07264711305924025,0.07182203622709431,0.07095425919228365,0.07001187972940658,0.06900832762678315,0.06798845118471067,0.06694615634730085,0.06598087164184724,0.0650922336858034,0.0642344817474422,0.06332978931018107,0.06226635703862825,0.06101776787549903,0.05956046516884927,0.05792098258032995,0.056174077096698596,0.05439412473282327,0.05273700618589929,0.05128373259254796,0.0500583790622323,0.04901836488321611,0.04802428351431784,0.046990896073993066,0.04577814046986931,0.04428504898770868,0.04249398328304973,0.04011939867303292,0.03777226947430831,0.03596467522881296,0.035233693387754304,0.035969601682883344,0.03754415792534685,0.04044500153708959,0.044548344599707274,0.04959828396548966,0.05521868440854681,0.060436380663848946,0.0652146976050204,0.06926660872288458,0.07239211135107099,0.07446776713421029,0.0751803822328142,0.07484197771941804,0.07369463824767779,0.0720910308177274,0.07043330618087186,0.06888190521522673,0.06784302778607983,0.06732308730345249,0.0670304434735537,0.0663988452275334,0.06458024873679236,0.06103934751874542,0.05539549611160989,0.04772353546572761,0.03863296499037634,0.029087547112759276,0.0205356803230821,0.014233601454036744,0.010987601210441227,0.01086708475321929,0.01299518266730829,0.01597934629765667,0.017974911430520206,0.017333225872858144,0.013230085756163069,0.0060983021910344755,-0.0016830087996483377,-0.006175899446898128,-0.002245156770446195,0.01559308675910685,0.05192788360539043,0.10974135677152774,0.18906921649826608,0.2865769065585216,0.3956125738536918,0.5067010612083431,0.6094253434731594,0.6935139663718399,0.7506144979408826,0.7756320609482766,0.7672451698577445,0.7287811963167641,0.6669097009673373,0.590550181997853,0.5092705974258093,0.4313968291230711,0.3636406771364949,0.3096337152239061,0.27001842782816704,0.24290913390334196,0.22444677013465045,0.21085457949348566,0.19859756637056367,0.18530355956127767,0.17004328360288762,0.15293872013460558,0.13555039861406215,0.11959167026870698,0.10653548291315328,0.0971774333024333,0.09123975366468266,0.08810304333548419,0.08654214086751612,0.08528254212729931,0.0833736157628989,0.08029276570043525,0.07645004135715737,0.07267989717119394,0.07006159772928543,0.06956979822336451,0.0716880009515879,0.07646850885939552,0.08334306998162849,0.09134570328417493,0.09940321136523715,0.10660356295575266,0.11264133448655159,0.11779799588341837,0.12292892307703693,0.1292366245071098,0.13789372254900656,0.14980108500777226,0.1651988321361516,0.1835703349222108,0.20370888963605144,0.22373894027914773,0.24233414344335058,0.2580393355564276,0.2700023375450215,0.27818115476499305,0.2829084654790048,0.28623156350019147,0.2894838435621834,0.29365892227973794,0.2991752584374331,0.30548652922645086,0.31219624641560234,0.31789357888223224,0.32099475142472755,0.3201693621098731,0.31454478836647903,0.30445010024277985,0.2907096890530955,0.2746846488811554,0.2579558781063492,0.24184347917044818,0.22752643425471375,0.21535251671645672,0.2050180585400177,0.0,0.0,0.0,0.0,0.0,0.0,0.0,0.0,0.0,0.0,0.0,0.0,0.0,0.0,0.0,-0.055807369898895766,-0.23760193072659963,-0.40419499557512,-0.5399827305015152,-0.6332890526111491,-0.6782024583910334,-0.6761666746419494,-0.6330415320949938,-0.5598494914178463,-0.4698273588003654,-0.37592315080065863,-0.28937945166594964,-0.21583337681111975,-0.15713179807534558,-0.11124950248709631,-0.07364384321028379,-0.039720829329574284,-0.004037497064544066,0.0363434432589905,0.0820344817253519,0.1315194727545592,0.18114742494131414,0.22841179549318996,0.27075242880844486,0.30682138811935716,0.3366827887194022,0.3608975651217906,0.3821967895829919,0.40277939661466133,0.4243144746739343,0.44753826242892375,0.47147494889752667,0.4957686656128598,0.5190929198889136,0.5402163891387678,0.5583937361384453,0.5729157495875637,0.5851521724859884,0.5963450361156817,0.6077750852793468,0.6203237335891116,0.6334532618164539,0.6473848746885907,0.6610370754502191,0.6730575970024123,0.6822537310397779,0.6872077445840274,0.6889276911829184,0.6883008068378254,0.6866025421535177,0.6851016789586385,0.684237603863405,0.6845687091520017,0.685841161419338,0.6873017886746587,0.6879496268774992,0.6867646371848848,0.6829689857566128,0.6769171782550729,0.6695512165728514,0.6620091390518381,0.6549645139162593,0.6488875896867404,0.6439311134265175,0.6398426775830991,0.6360686512261771,0.6315411008545975,0.6260091832576443,0.6194002447708266,0.6119880443813508,0.6042564146138493,0.5962208585859131,0.5887708628340332,0.5822717548917087,0.5768623517884611,0.5724441780015215,0.5681348280246215,0.5642328871521577,0.560503229564535,0.5567788269842816,0.5529819758717048,0.5484742767843471,0.5440955171462999,0.5400503021963272,0.5364992922802104,0.5335197737418883,0.5303938925747865,0.5278639857779989,0.5258161097760257,0.5240601278483286,0.5223905918272996,0.5199287267315386,0.5175082274225321,0.5152005051284937,0.513091101278575,0.5112614099127107,0.5090243622620538,0.5073448928474523,0.5062029867165333,0.5054555067035124,0.5048938823863505,0.5035756247289801,0.5023067064762294,0.5010519754467989,0.4997902289839223,0.49852635485999025,0.49655942583894735,0.4948816444623806,0.49354790738691573,0.4925147548399344,0.49167165434238874,0.49017077477345833,0.488809736040055,0.48752382079374285,0.48622150053178537,0.4848169538247872,0.48256288393583996,0.4803411343983554,0.47820762821716456,0.4761768414048466,0.4742364266993224,0.4716808231869443,0.46935736837212905,0.46728385159378305,0.4654132076456548,0.4636558995738576,0.4612360432156731,0.4589109285765689,0.45667347343662756,0.4544997427784592,0.452367431537588,0.44962612170813504,0.44709567187432736,0.44483674486311653,0.4428485155286197,0.4410789635013184,0.4388327327846009,0.4367947398256262,0.4349253268995709,0.43315799013180967,0.43142880775197506,0.42910637115177236,0.4269415654556225,0.42499381163827044,0.4232801269693619,0.4217786520026317,0.419864753004788,0.41820544507095736,0.4167640175170825,0.41546184416114057,0.4142122845217315,0.412380397728692,0.4106713806841582,0.4091358847621927,0.40779656376326645,0.4066459170408312,0.405078482459856,0.40375534478445047,0.40263359496610446,0.40161782442601535,0.4006020493238933,0.39928638490982976,0.3980640161750734,0.39686129150577604,0.3956527557888802,0.3945581816069553,0.3940001794479857,0.3944952649210048,0.3961228504735081,0.3987121306498974,0.4018782656869063,0.4050940546949924,0.4080427370838276,0.4100397748116415,0.410517259257816,0.40919834976685726,0.4060335028651095,0.40180002229301687,0.39697370277178795,0.3919731955005986,0.3870792724755312,0.38208255575433986,0.3774761661140919,0.3731533042754865,0.36899176894614916,0.36496019518420514,0.3606505326976416,0.3569145134351971,0.353985180040888,0.35191446626953243,0.35049589570731926,0.3486752826734781,0.3465977643151109,0.34384230945839983,0.3402378999435794,0.3360315962304333,0.331256551873234,0.3278194668109723,0.32707380713479345,0.3300236031900897,0.3368142735317678,0.3455547984309562,0.3544031512647895,0.3593992251813398,0.35555101472868655,0.3375969508331023,0.30024318498753927,0.24171553999038012,0.16234710701884578,0.06573642854958425,-0.041401288629373575,-0.1508273305509657,-0.25166048091452925,-0.33438313309913054,-0.39181697830572576,-0.4203995280918495,-0.4215463609228035,-0.3988651798907237,-0.3594124544896218,-0.31141315719358514,-0.2625380393973626,-0.21921809780922316,-0.18332959995940631,-0.15439329422164783,-0.12953815148607922,-0.1046765507028757,-0.07660924548719278,-0.0417941544397556,0.0006807350184026922,0.04964948154481029,0.1022870828500739,0.15419709409400997,0.20261355159760724,0.24506231324230626,0.2804764569634389,0.3092507164030235,0.3322447374386423,0.35234803879154475,0.371804432298611,0.3922501728436914,0.41436500128030307,0.4371653294162243,0.46028276404632673,0.48242131594767335,0.5023921164259346,0.5194792861575827,0.533001941046496,0.5442582365501347,0.5544085091026856,0.5646540929164018,0.5758393481299571,0.5875561107837032,0.6000107705929429,0.612320498808443,0.6233741509870434,0.6321994101023315,0.6376726568494274,0.6405805930516272,0.6417340807952718,0.642249864260727,0.6431723020736198,0.6447212557232184,0.6472036785443781,0.650183459150208,0.6528226675159655,0.6541451940449081,0.6531594381353031,0.6494554179525565,0.6434843900923827,0.6362203989684883,0.6287954119768204,0.6218617121609608,0.615943176801013,0.6111503045501702,0.6071813849934375,0.6034456299087327,0.5989383024917236,0.5933426323702456,0.5865983139546486,0.5790014889569405,0.5710619807472755,0.5628937838015415,0.5553271812920154,0.5487194598958529,0.5432017037134416,0.0,0.0,0.0,0.0,0.0,0.0,0.0,0.0,0.0,0.0,0.0,0.0,0.0,0.0,0.0
0.5067010612083431,0.6094253434731594,0.6935139663718399,0.7506144979408826,0.7756320609482766,0.7672451698577445,0.7287811963167641,0.6669097009673373,0.590550181997853,0.5092705974258093,0.4313968291230711,0.3636406771364949,0.3096337152239061,0.27001842782816704,0.24290913390334196,0.22444677013465045,0.21085457949348566,0.19859756637056367,0.18530355956127767,0.17004328360288762,0.15293872013460558,0.13555039861406215,0.11959167026870698,0.10653548291315328,0.0971774333024333,0.09123975366468266,0.08810304333548419,0.08654214086751612,0.08528254212729931,0.0833736157628989,0.08029276570043525,0.07645004135715737,0.07267989717119394,0.07006159772928543,0.06956979822336451,0.0716880009515879,0.07646850885939552,0.08334306998162849,0.09134570328417493,0.09940321136523715,0.10660356295575266,0.11264133448655159,0.11779799588341837,0.12292892307703693,0.1292366245071098,0.13789372254900656,0.14980108500777226,0.1651988321361516,0.1835703349222108,0.20370888963605144,0.22373894027914773,0.24233414344335058,0.2580393355564276,0.2700023375450215,0.27818115476499305,0.2829084654790048,0.28623156350019147,0.2894838435621834,0.29365892227973794,0.2991752584374331,0.30548652922645086,0.31219624641560234,0.31789357888223224,0.32099475142472755,0.3201693621098731,0.31454478836647903,0.30445010024277985,0.2907096890530955,0.2746846488811554,0.2579558781063492,0.24184347917044818,0.22752643425471375,0.21535251671645672,0.2050180585400177,0.19574239410282535,0.1864573545706561,0.17641089719707395,0.16507161405380422,0.15237182050789497,0.13870615262619554,0.1246751474366466,0.11130425361208078,0.09940000088013068,0.08948178215601979,0.08166991114956575,0.07550633381547402,0.07059936337603018,0.06630053332307706,0.062027010116369345,0.05740566844492913,0.05212958925475231,0.04662608909142853,0.04133228229051534,0.03672243806039276,0.03314142574029251,0.030425577626349835,0.028685354226370283,0.027597310638495326,0.026748420726169887,0.02577471106530499,0.02418136902165525,0.02234616000357622,0.02054094240972401,0.019124164791067565,0.018407996390317462,0.018212127118923692,0.018891485286612202,0.02022304933309842,0.02185960941616248,0.023462303261903097,0.024484859268022432,0.025328845148294397,0.02615283554008546,0.027164411916514187,0.028516610133488742,0.0298874558174671,0.031560909010440376,0.033266015004728616,0.03468156325184457,0.035592871372304914,0.035722605065070544,0.035797372986204834,0.03646587537684619,0.03851002813879323,0.0426691326111211,0.04917729828920835,0.05850690753913344,0.0704047646646535,0.08419803659766054,0.09891717311011122,0.11328310808510889,0.12655586849720848,0.13807294365956202,0.14756192205677204,0.15516521360910132,0.16124616889050397,0.1666311514538416,0.17202664157602296,0.17794959725466974,0.18459114454581385,0.19170036630224618,0.19885727385648802,0.20538101132743597,0.21059506660441835,0.21401707548252638,0.21547838374629333,0.21520965107520063,0.21370009572708734,0.2115827126712651,0.20946188503818988,0.20777611818825012,0.20668284385892044,0.20605610569554744,0.2055839962134384,0.2049066945938534,0.2037901863342342,0.20210212618771878,0.1998896338296084,0.19732564473746436,0.1946341784047325,0.19203778305498526,0.1896651248930176,0.1875691206350017,0.1857786935648901,0.18436166221561154,0.1834652222550336,0.18331027644715522,0.18408474769076008,0.18585739423922698,0.18847767777636382,0.19150059305870945,0.19426909196026312,0.195921840842264,0.19559093672609654,0.1925936933371161,0.18656054430398533,0.1776524583474018,0.1664078054763912,0.15368175436577264,0.14046624257530224,0.1276021513509069,0.115870930905705,0.10555630372819724,0.0965314221895819,0.08833879181348837,0.08022155496794584,0.07173933040721667,0.062448784052794,0.05220129957962016,0.04119515588951816,0.029756009599411545,0.018792071991119187,0.00895589497357441,0.0006787865963186467,-0.0059484800344520705,-0.011426397477927026,-0.016017403611584238,-0.02038766944306467,-0.025132236120934674,-0.03057375473967324,-0.03692928045674091,-0.0433712517406583,-0.04909828053308288,-0.053259812222997825,-0.05519902944489441,-0.054998939104142476,-0.05244123164497462,-0.048042228939615364,-0.04257564736508425,-0.03686572943948643,-0.03197434168960778,-0.02785007234174183,-0.024444573712517126,-0.021464173757323252,-0.018532429434078453,-0.015777021666329584,-0.01262904584661095,-0.009054487420608298,-0.005168921694919053,-0.0011631617917875338,0.0024018944731299644,0.005835729161586538,0.009212156113819014,0.012644849535953245,0.016206105850503385,0.01952751928743766,0.022840990693557685,0.025999327273353256,0.028860896414506402,0.03137641823948637,0.03341053138457116,0.0355103818897145,0.03811748955892764,0.041683689877991294,0.04654673062846935,0.052680934704488855,0.06010930026754241,0.06847653069610361,0.07727715446610073,0.08599602322126215,0.09418206647050661,0.1018238107352524,0.1091748947300667,0.11679745048257553,0.12544531581405496,0.1358632633082226,0.1486094115803944,0.1638430586200081,0.18121831665412294,0.1998952837508567,0.2187034347730741,0.23633708394871308,0.2517458344354091,0.2643798738652439,0.2743452516876584,0.2824310268945161,0.2897394093336141,0.297522892322541,0.30672323905672777,0.31763633126372376,0.32979826068351153,0.341889863918815,0.35219119630116374,0.3589672037622409,0.3609274108397891,0.3576275219181579,0.34944411363297223,0.3376030519655164,0.3238098878437271,0.30980473704541645,0.29697250500298683,0.28591409614134283,0.27645709339016755,0.26777105557905034,0.2586820632510438,0.24809368679720264,0.23523552360093677,0.21992829038986236,0.20261087997714075,0.18420803179354123,0.165917118424771,0.14881360512822,0.13364297750953757,0.12068122465405283,0.10973400033603861,0.0,0.0,0.0,0.0,0.0,0.0,0.0,0.0,0.0,0.0,0.0,0.0,0.0,0.0,0.0,-0.1508273305509657,-0.25166048091452925,-0.33438313309913054,-0.39181697830572576,-0.4203995280918495,-0.4215463609228035,-0.3988651798907237,-0.3594124544896218,-0.31141315719358514,-0.2625380393973626,-0.21921809780922316,-0.18332959995940631,-0.15439329422164783,-0.12953815148607922,-0.1046765507028757,-0.07660924548719278,-0.0417941544397556,0.0006807350184026922,0.04964948154481029,0.1022870828500739,0.15419709409400997,0.20261355159760724,0.24506231324230626,0.2804764569634389,0.3092507164030235,0.3322447374386423,0.35234803879154475,0.371804432298611,0.3922501728436914,0.41436500128030307,0.4371653294162243,0.46028276404632673,0.48242131594767335,0.5023921164259346,0.5194792861575827,0.533001941046496,0.5442582365501347,0.5544085091026856,0.5646540929164018,0.5758393481299571,0.5875561107837032,0.6000107705929429,0.612320498808443,0.6233741509870434,0.6321994101023315,0.6376726568494274,0.6405805930516272,0.6417340807952718,0.642249864260727,0.6431723020736198,0.6447212557232184,0.6472036785443781,0.650183459150208,0.6528226675159655,0.6541451940449081,0.6531594381353031,0.6494554179525565,0.6434843900923827,0.6362203989684883,0.6287954119768204,0.6218617121609608,0.615943176801013,0.6111503045501702,0.6071813849934375,0.6034456299087327,0.5989383024917236,0.5933426323702456,0.5865983139546486,0.5790014889569405,0.5710619807472755,0.5628937838015415,0.5553271812920154,0.5487194598958529,0.5432017037134416,0.5386783315858182,0.5343586643001821,0.5304964552393724,0.5268676435687776,0.5233062519746828,0.5197202144284739,0.5155030011574994,0.5113790531824297,0.507487773215491,0.503933706304655,0.5007620972711296,0.4973102383143714,0.4942921810497522,0.49164833282439213,0.48925565657109793,0.4869689556176111,0.48399165614823036,0.48109608306217194,0.4783149029476182,0.47567140724587476,0.4731758139640926,0.47011975676186274,0.4673779290138835,0.4649437954135858,0.4627366926245727,0.46064391624612894,0.45786473470452443,0.45523613544254865,0.4527628504623546,0.4504095877049801,0.4481120185281653,0.4450969427375033,0.4421936077097867,0.4393693081844678,0.43656005516976465,0.43371866915745855,0.43017360693040335,0.42686811968230326,0.4239316903786058,0.42142409910446277,0.4193253197867518,0.4168819216656498,0.41479670318801953,0.4129339453079559,0.41112122387807076,0.4092215843691253,0.4065711087096227,0.40404408715800194,0.40183949160436466,0.40014816599058317,0.3991178489514988,0.39824016453587013,0.3982440847755681,0.39902842895376284,0.40035428422565417,0.40191214709793055,0.40283999620966365,0.40363636359865285,0.40421194289058004,0.404548738606843,0.4047064452443623,0.4042665541851907,0.4040713567803983,0.4042608833739495,0.4048564538681372,0.4057631223058236,0.40627758313304857,0.4068449593388747,0.4072557889104135,0.40729851455966415,0.40681979936728496,0.40526492291353844,0.40333718170336413,0.4011866260208877,0.3989547211175291,0.3967542302453316,0.3939983390485981,0.391524885311862,0.3894583640785497,0.3878544997413647,0.38668866112337813,0.3850327341354483,0.38367140594560883,0.3826403398012668,0.3819574502509807,0.38159319133404584,0.38102817703805625,0.38058996983661186,0.37994921423266936,0.3787008126418343,0.37649772154471356,0.3731885021732531,0.3690059887559235,0.36401435639750096,0.35837261038176166,0.3523470738676121,0.3461568297305486,0.3405015151289725,0.3356045861195818,0.33152745030649483,0.32819642619051065,0.3251548685621605,0.32264331340786706,0.3204205114171459,0.3182440678061026,0.3159431976463733,0.31307932918600767,0.3102651318674194,0.3076805268176124,0.3054749061125296,0.30368996910223595,0.3017060963314149,0.29980316077532454,0.2975380025018284,0.29440064534357924,0.29003469448855723,0.28396337251060705,0.2775863706740936,0.2725323803510992,0.2711757852852553,0.2763794198748786,0.29042551500007024,0.3162963510810126,0.35507027258528834,0.40589277338183444,0.46559047994741626,0.528029430489878,0.5864770903410145,0.6324859748022355,0.6576274627091158,0.6548015400199539,0.618871883887297,0.5496641247892559,0.4505041027894004,0.3286710426553421,0.1945923554503106,0.05986817530658992,-0.06250958937434992,-0.16183390130670905,-0.23062680227935015,-0.2656168291193328,-0.268567959210473,-0.2438911505554966,-0.19931645876020182,-0.14378134620730798,-0.08581907305018309,-0.03275155734051411,0.011890190653058417,0.04685826940991214,0.07331202367134329,0.09397868301896665,0.11162023737071934,0.12968928476651823,0.15006262381965146,0.17324830186467075,0.19850783666789532,0.22380773607253246,0.24793047335696203,0.2695036902029708,0.2878359704803823,0.30303699031682396,0.3154350989378287,0.32671936515057076,0.3381059900355451,0.350429853417042,0.36392908611013075,0.3777818119430842,0.3916574898590906,0.40460989505292105,0.41581401534777,0.4248211819034376,0.4312669976389566,0.43617312200178476,0.4404312344039875,0.44492494423287593,0.45024043922800255,0.4559513369662454,0.4622698940629529,0.4683512952005543,0.47313284979902503,0.47565969655256757,0.4747610046338401,0.47127433769532023,0.46574187998565475,0.45902586728046335,0.4520906341159481,0.44537795222222587,0.43976740662463304,0.43535894568453576,0.4318195927359303,0.42852157167932864,0.42461969121911236,0.4195471172885957,0.4132377763430191,0.4060148901027305,0.39843204456463593,0.39083912436615503,0.38382418329979257,0.37771855567941603,0.37260998633319015,0.36834251744994323,0.3642635318279956,0.3602973896205072,0.35620783020816316,0.35189165347668955,0.3473803750532237,0.34243055478618883,0.3376408602425541,0.33327135957842524,0.32950928398871254,0.32641823265650427,0.0,0.0,0.0,0.0,0.0,0.0,0.0,0.0,0.0,0.0,0.0,0.0,0.0,0.0,0.0
0.2229492349295264,0.24057288640209223,0.24600283478999255,0.23805458970675988,0.21738462647840068,0.18616330645621232,0.14778505464204286,0.10631605469212019,0.06564907728523131,0.029431060201747666,0.0002364478995591895,-0.020665151255619782,-0.033370725405752165,-0.03937849830132461,-0.040553283573976494,-0.039041532782649026,-0.03673198670996987,-0.034940932382069266,-0.034466816667603185,-0.0350931362439966,-0.03618117863702271,-0.03689192750683617,-0.036511139358386374,-0.03484113043379066,-0.03183561663241028,-0.02789711535721634,-0.023610078096705064,-0.019524724258003518,-0.016067698592797712,-0.013123695484122427,-0.010300025394064043,-0.006982929569308283,-0.002538309157620675,0.003427112493438206,0.011078131468377017,0.02015406952748038,0.030085657318280633,0.04016597621404112,0.04974836176338443,0.05852252722497262,0.06657377630362708,0.07441514193246133,0.0828702615857029,0.09286054056989124,0.10511532221645556,0.11994012865354652,0.13706831488541452,0.1556601469946645,0.17440837220131147,0.1920229520016553,0.2072780143113107,0.21943613213877655,0.22845003240362602,0.23486806067133686,0.24007417196802167,0.24535033274146853,0.2517121763514137,0.25959431412810735,0.26863025186120437,0.2778659049272547,0.2857253206571866,0.2904894507242737,0.2907385958525887,0.28573845137540616,0.27559132356966826,0.2612859722284638,0.24442481232626317,0.22683177087420478,0.21013464574219276,0.1953773916525998,0.1829103849958681,0.17238051228647913,0.16292494589582085,0.1534832229308511,0.14309248289390095,0.13121364082530537,0.1178318286622394,0.10342871033356871,0.08882088957116831,0.07493118016921536,0.06256484821916898,0.052208246998083026,0.04393247477131657,0.03739644997869314,0.032007227854479306,0.02707329868327367,0.02200307050878165,0.01645572239701162,0.01037541160570817,0.0041012003041651195,-0.0018824701456679057,-0.007055077039110946,-0.011021029977293333,-0.013692111817850532,-0.015110270818675735,-0.015661003457980435,-0.015860870707182662,-0.016192532239552828,-0.017090815288635163,-0.01838278966728629,-0.019816544208730344,-0.020965972875147506,-0.02136403450181232,-0.02086128089527373,-0.019019726299758854,-0.015958631723025845,-0.012048752984889695,-0.00779799043286896,-0.003949467623018538,-0.0005550027336047453,0.002190709007212775,0.004261225965467707,0.005768053636074404,0.0066347553761429015,0.0074214524506754425,0.00826949992342523,0.00922247998414328,0.010256168542265348,0.011095508408175242,0.011996516674114756,0.012933362666117375,0.013866756830899331,0.014744283448456292,0.015318457766811847,0.015764540213361697,0.016054107440977353,0.016184183522994285,0.01619788393651383,0.016016463035568997,0.015960957592164635,0.0161796370749437,0.0167533185855242,0.017651484424571366,0.018562412735466934,0.019400268852473482,0.019955391718969193,0.020082928834631694,0.019767291619881527,0.018682835011140736,0.01762200610068896,0.017319150905608604,0.018548075744518666,0.021883098815191696,0.02669768442055359,0.03346033146257141,0.041966354421103164,0.051816059760695726,0.062440185492997353,0.0725731245251069,0.08198989909257591,0.09031811372289848,0.09734942288577898,0.10299727217080303,0.10692504315881513,0.10949717091955534,0.11106335035866613,0.11208735478451881,0.113057646665707,0.11410990147303178,0.11569137802326422,0.11789107309197551,0.12052158556554549,0.123118021160611,0.12482868194871556,0.12517004034499565,0.12378212213018573,0.12070413770539926,0.1164351486620365,0.11168843184727718,0.1077338481083615,0.10569541315400383,0.10633052650816689,0.10975227616346202,0.11513884496293039,0.12130218950894661,0.12661654540891534,0.12959911704278984,0.12946839632729856,0.12646359379766425,0.1227540539727546,0.121992641749278,0.12904105191376664,0.14918451649113518,0.18684673952064773,0.24513370800799292,0.3243207924494347,0.4213887806872669,0.5299857604492496,0.6407563566969294,0.7434254839977422,0.8277281201178757,0.8852457868111426,0.9107870044073642,0.9028600938580188,0.8648225105133214,0.8034032530578141,0.7276128529561992,0.6470828845331403,0.570065553781625,0.5032037747337378,0.44994186492307553,0.41069649901933525,0.38337876465891657,0.36398147074574666,0.34876235025403896,0.3343074633051811,0.3184559206711037,0.3005275158068673,0.28084727938404414,0.26117107223805736,0.24326041854110603,0.2285364373782282,0.21767626695481807,0.21024049942531292,0.20553219135969622,0.20223397464125037,0.1990315831083646,0.19499725516744307,0.18965787788459396,0.1836316270377847,0.17791505595585655,0.1737615947316565,0.17231824338006807,0.17416343958909503,0.1795260843800293,0.18780532098046554,0.19786974668198798,0.20836280295422246,0.21794834694155385,0.22606274707482266,0.2326591288575532,0.23838344513464388,0.2444073625283769,0.2519867760744027,0.2624713016785163,0.27646160969841155,0.29374156838335874,0.3132541193406964,0.3329739017166578,0.35141458399845465,0.36660564466290824,0.3770556644193213,0.38210087615301586,0.3815252320493776,0.3773426825953096,0.37103555392262194,0.3640681574254052,0.35759207780476115,0.3518463885351597,0.34744841768764867,0.34367168328865305,0.33931448279203313,0.3330832794565064,0.3237318030585345,0.31123110730479886,0.295787465532786,0.27818015715883887,0.25958394274951707,0.2410913860620369,0.22413168944893191,0.2093512941730926,0.19681802029576562,0.18608460604252774,0.1762173652235667,0.16659504693890861,0.1564942777174228,0.1455104030948581,0.1336603938542829,0.12122264688299297,0.1091057410060813,0.09805695628612723,0.08866850563080575,0.08123618166603806,0.07557312342551684,0.0714882613527169,0.06837395026946444,0.06556261156707473,0.06251507385861999,0.05881162764552645,0.054732271712074856,0.050581676051205504,0.04679410923420525,0.04379396605120191,0.04169083403941886,0.0408022909000118,0.0,0.0,0.0,0.0,0.0,0.0,0.0,0.0,0.0,0.0,0.0,0.0,0.0,0.0,0.0,0.29126273028853966,0.29422106167853596,0.28976859096233964,0.27534710177404254,0.25046226766655044,0.2154024173937318,0.17194561726251334,0.12331266991294212,0.07330514981828969,0.02740048766242977,-0.00959320942745832,-0.033843396482905984,-0.0431432511364554,-0.037779063026749465,-0.018934063335700295,0.010164994219122862,0.04535691002101365,0.0823310423770713,0.1168859872752296,0.1470550436097496,0.1718518363272347,0.19164748171695703,0.207805335890598,0.22166542220616903,0.23552816406403623,0.25069817857349125,0.2676832232171347,0.2861697061722661,0.30475031513236067,0.3227244127058673,0.33903920738994775,0.3530210116030465,0.3645340764539342,0.3735308202122243,0.3812876881634243,0.38879035965404357,0.39684536532712283,0.4058409954161003,0.41520471492188843,0.4248129746621517,0.43386145354073435,0.4415128040424002,0.44714791437826645,0.45012281196376264,0.45115208566965836,0.45094372566327534,0.4503633205981783,0.45016264104519327,0.4503116744704271,0.45124441334572607,0.45253667533726,0.45345374831973767,0.45317736771212,0.4506072739846408,0.44596531984843085,0.4394705505037033,0.4317107510195631,0.42348052239399775,0.41522120809391444,0.40789279898731223,0.40189200183863255,0.397272870437067,0.3937836770758754,0.3907229647302087,0.38780218887545975,0.38476470130816404,0.38153752652802136,0.37818885875354563,0.37453297646256145,0.3710082491189502,0.36779457342240723,0.3649922707457566,0.3625940404312158,0.3601109030170229,0.35779908483700296,0.3555613580380543,0.3533204178435932,0.3510353736220943,0.34829341209791703,0.3456329085834612,0.3431965973917226,0.341114827889645,0.3394767068129727,0.33785918276921784,0.3367770889076367,0.33616605167214153,0.33588264739270457,0.3357438589806608,0.33510427778111923,0.3344271387322544,0.3336823150881882,0.33286834410519167,0.3320110111483489,0.33066506517415367,0.32950289400629634,0.3285730755166998,0.3278519844384344,0.3272655527926214,0.32621318761382445,0.32525565141849,0.32435874293859357,0.3234676522434809,0.32252009443689394,0.3209330536136542,0.3193292507425031,0.3177259256752918,0.3161217819210793,0.3145157540658518,0.31241767530001496,0.31049796427989024,0.30884929627368357,0.3075202601138045,0.3065114136948096,0.30529518489966107,0.3044001506045692,0.3037839915421992,0.3033676568788513,0.3030582139099934,0.3022974047334089,0.3015964686001102,0.3009453306937373,0.3003042245477638,0.2996050141251772,0.29830606236626867,0.2968902494999615,0.2953523625792074,0.2937005525940246,0.2919738683799932,0.28972702886372,0.28768488519223545,0.2860437602330783,0.2849281366369775,0.2843427226348092,0.2835667885680779,0.2830299641183777,0.28257211014501016,0.2820414576204585,0.28134784827909587,0.28041054704209567,0.2795473048806125,0.27882072550750825,0.2783449084346977,0.27835297392338254,0.2796330476646996,0.2823689364640522,0.28650428241675624,0.29169906785173794,0.2974122855647612,0.30321747694352025,0.3085458911565365,0.31276616738144036,0.3154441486671877,0.31647159720613977,0.31604549707425195,0.3148821361708976,0.31347744711461045,0.31219627868297145,0.31119559884992026,0.310191485906224,0.30935475142001745,0.3084543887323937,0.3073171552495776,0.30591960049370076,0.30398143573371256,0.3022352412320323,0.30092330200335266,0.3000915577118966,0.2995354888024223,0.2983617967023962,0.2968018660475062,0.29491077041985775,0.2932802086158591,0.29315137711114386,0.29572298349211196,0.3037018526704042,0.3189678301327597,0.34237381844343323,0.3730275353480099,0.4071385581671819,0.4398957078226808,0.4639932641800564,0.4710485497570497,0.4529036935848759,0.4024904131259194,0.3174547097784534,0.19935751244728012,0.05465565331609571,-0.10575895743463692,-0.2685766167256792,-0.4179787231569701,-0.5399227489059454,-0.6238571485096711,-0.6644216084541498,-0.6628697361894997,-0.624573030349726,-0.5595206064143282,-0.47967220774944785,-0.3966572877907927,-0.32043001587022557,-0.2558540693647148,-0.20424899183978465,-0.1634075637236298,-0.12889296712743553,-0.0963159714626023,-0.060749910229321,-0.01970641906664334,0.02702370824493625,0.07760464742388816,0.12825184492716263,0.17622074010858027,0.21886237625078458,0.2547963905959908,0.2841022619752118,0.30748001910506617,0.32765929027869656,0.34693190457772044,0.36706874364427217,0.3889004504227568,0.4116023606990711,0.4347477800889188,0.4569581549969699,0.476900367971471,0.4936986388703017,0.5066006228339591,0.5167904460243258,0.5254687272889336,0.5339647172245587,0.5433020165919982,0.5532602503103844,0.5641859869294023,0.5752192743460407,0.5851688346130459,0.5929053943136946,0.5970813202649363,0.598407576111863,0.5975713894742599,0.5956599240520454,0.5938124319860318,0.592516096548566,0.5922929039040584,0.5930147749077908,0.5941006744411287,0.5947194696583691,0.5940256133824741,0.5912350240995498,0.5866099327425227,0.580920445000677,0.5751057943207185,0.5697448246647077,0.5651356849703589,0.5613978202802717,0.5583296035197122,0.555492118983068,0.552054590763108,0.547787034613035,0.5426755563095624,0.5369858066048776,0.5311281137239267,0.525090935861007,0.5195145373563357,0.514611880121332,0.5104107467684533,0.5067641084647853,0.5029038728714335,0.49910074146194094,0.495214570005074,0.49118844228300934,0.487049270726358,0.48233796948075736,0.4778364118252219,0.47375267650684033,0.4702325607995867,0.4673344329879307,0.4644272838552732,0.46214038351664716,0.460355794216734,0.45888741626248425,0.4575324075847509,0.45549774772905127,0.45347443061218584,0.4514830599327927,0.44955629983962514,0.4477303821815712,0.44538184403713293,0.443356142397345,0.0,0.0,0.0,0.0,0.0,0.0,0.0,0.0,0.0,0.0,0.0,0.0,0.0,0.0,0.0
0.6407563566969294,0.7434254839977422,0.8277281201178757,0.8852457868111426,0.9107870044073642,0.9028600938580188,0.8648225105133214,0.8034032530578141,0.7276128529561992,0.6470828845331403,0.570065553781625,0.5032037747337378,0.44994186492307553,0.41069649901933525,0.38337876465891657,0.36398147074574666,0.34876235025403896,0.3343074633051811,0.3184559206711037,0.3005275158068673,0.28084727938404414,0.26117107223805736,0.24326041854110603,0.2285364373782282,0.21767626695481807,0.21024049942531292,0.20553219135969622,0.20223397464125037,0.1990315831083646,0.19499725516744307,0.18965787788459396,0.1836316270377847,0.17791505595585655,0.1737615947316565,0.17231824338006807,0.17416343958909503,0.1795260843800293,0.18780532098046554,0.19786974668198798,0.20836280295422246,0.21794834694155385,0.22606274707482266,0.2326591288575532,0.23838344513464388,0.2444073625283769,0.2519867760744027,0.2624713016785163,0.27646160969841155,0.29374156838335874,0.3132541193406964,0.3329739017166578,0.35141458399845465,0.36660564466290824,0.3770556644193213,0.38210087615301586,0.3815252320493776,0.3773426825953096,0.37103555392262194,0.3640681574254052,0.35759207780476115,0.3518463885351597,0.34744841768764867,0.34367168328865305,0.33931448279203313,0.3330832794565064,0.3237318030585345,0.31123110730479886,0.295787465532786,0.27818015715883887,0.25958394274951707,0.2410913860620369,0.22413168944893191,0.2093512941730926,0.19681802029576562,0.18608460604252774,0.1762173652235667,0.16659504693890861,0.1564942777174228,0.1455104030948581,0.1336603938542829,0.12122264688299297,0.1091057410060813,0.09805695628612723,0.08866850563080575,0.08123618166603806,0.07557312342551684,0.0714882613527169,0.06837395026946444,0.06556261156707473,0.06251507385861999,0.05881162764552645,0.054732271712074856,0.050581676051205504,0.04679410923420525,0.04379396605120191,0.04169083403941886,0.0408022909000118,0.04090886840550513,0.041585862410927835,0.04234989381450867,0.04257808425890985,0.04244209823068885,0.04197267240010449,0.04136451855787257,0.040905821577815436,0.040580858506644675,0.041012924263403173,0.04219749723912323,0.043931370247977386,0.04589988461331654,0.04751524701512493,0.04893604202767171,0.05000658352168932,0.05065426004586233,0.05089394764881763,0.05057247493982454,0.05016576904474297,0.0497473010150263,0.049333465607370314,0.048916995515044755,0.04830886623374403,0.04781843382511406,0.047452119466398414,0.04717931851480416,0.04694004338127189,0.04651267868933066,0.046032909962420716,0.04542730331036419,0.044644649226509986,0.043691289149871554,0.04247654365449588,0.04136435059878948,0.040558313708673424,0.04022557428223977,0.040442534918471225,0.04096127887056829,0.041832065083770756,0.042875336540390274,0.04389752191567946,0.04474994998901397,0.04523051471652302,0.04558536581466009,0.046084135751044926,0.04710408279708916,0.049057365059556705,0.052199305240198376,0.05685543259711152,0.06306128676129068,0.07060465065454244,0.0790237011994434,0.08755366053610819,0.09551298216146457,0.10213744334199483,0.10677582874987078,0.10899003733933008,0.10853209164579573,0.10565740731587482,0.10083524001347152,0.09474899090936799,0.08818117997199656,0.08178348705477108,0.07626416628788789,0.07200774405076964,0.06910838717310884,0.06737232260466307,0.06626999670478978,0.06537327615229262,0.06417762553582546,0.062324168740117404,0.059706307950193924,0.05640520341353063,0.05309110914477455,0.05060632996863176,0.049937970578332914,0.05204029329572479,0.05749242717186616,0.06678628591177563,0.07980433166508676,0.09588090722588757,0.11383629106817628,0.13188528182338474,0.1484990169962169,0.1620945920927395,0.17140289980764278,0.17563228884062776,0.17427627592772252,0.1679857436451351,0.15779492149689175,0.14512944107179787,0.1315607929189908,0.11822474333026349,0.106575084320102,0.09743998200018861,0.091141797696373,0.08748929699735387,0.08550470477169399,0.08468409751361153,0.0843202952209756,0.0838947116262788,0.08315361029808441,0.08178315351365428,0.08030205462545605,0.07911018551739042,0.0785597497995486,0.07881792359881494,0.07952463180595967,0.08066611766971782,0.08190632629735013,0.08293794437501956,0.08359838230594077,0.08373024360438622,0.0838193121561758,0.08432956798488433,0.08573716052566241,0.0883788410130666,0.09219702293317249,0.09713131844524883,0.1027607310932079,0.1085473969201629,0.11400715147917455,0.11877481883278464,0.1230674597100587,0.12739718011844625,0.13259489249717096,0.1396354619452825,0.14932185224056777,0.1622785930013371,0.17851601694213864,0.19742517164340903,0.2178455648032786,0.23817842351866458,0.25704652259253213,0.2732542547316555,0.28620588490421767,0.2960556676612747,0.3035365899774939,0.3101590675184444,0.31729673822613713,0.3259548956073213,0.33644325745221443,0.34811097219926534,0.3597970019195502,0.3696793415015785,0.37585777826829203,0.3768308472431541,0.3717825820502691,0.3610879953097618,0.3459125079298212,0.3280381747595423,0.3094403158360643,0.2917532699049872,0.2761995802580131,0.26310526779301074,0.25204061528987776,0.24204978442897454,0.23191621455411165,0.22076263604163238,0.2080404816903797,0.19374802097584892,0.17839937094164704,0.16277563316092963,0.1479571562298634,0.1347678742572017,0.12368388622703122,0.11474895745431953,0.10751511076693962,0.10147598806875117,0.09592426583868273,0.09025341803615311,0.08411156377180305,0.0773704866926621,0.07045695864516148,0.06385047856568005,0.058060716493512174,0.05347417008928657,0.050123324362010925,0.04804846835242581,0.04687780787723436,0.04610076859903085,0.04522924632932233,0.04377392590631236,0.041938498498229365,0.03992989250021585,0.038130163734168845,0.03698432256935808,0.0,0.0,0.0,0.0,0.0,0.0,0.0,0.0,0.0,0.0,0.0,0.0,0.0,0.0,0.0,-0.2685766167256792,-0.4179787231569701,-0.5399227489059454,-0.6238571485096711,-0.6644216084541498,-0.6628697361894997,-0.624573030349726,-0.5595206064143282,-0.47967220774944785,-0.3966572877907927,-0.32043001587022557,-0.2558540693647148,-0.20424899183978465,-0.1634075637236298,-0.12889296712743553,-0.0963159714626023,-0.060749910229321,-0.01970641906664334,0.02702370824493625,0.07760464742388816,0.12825184492716263,0.17622074010858027,0.21886237625078458,0.2547963905959908,0.2841022619752118,0.30748001910506617,0.32765929027869656,0.34693190457772044,0.36706874364427217,0.3889004504227568,0.4116023606990711,0.4347477800889188,0.4569581549969699,0.476900367971471,0.4936986388703017,0.5066006228339591,0.5167904460243258,0.5254687272889336,0.5339647172245587,0.5433020165919982,0.5532602503103844,0.5641859869294023,0.5752192743460407,0.5851688346130459,0.5929053943136946,0.5970813202649363,0.598407576111863,0.5975713894742599,0.5956599240520454,0.5938124319860318,0.592516096548566,0.5922929039040584,0.5930147749077908,0.5941006744411287,0.5947194696583691,0.5940256133824741,0.5912350240995498,0.5866099327425227,0.580920445000677,0.5751057943207185,0.5697448246647077,0.5651356849703589,0.5613978202802717,0.5583296035197122,0.555492118983068,0.552054590763108,0.547787034613035,0.5426755563095624,0.5369858066048776,0.5311281137239267,0.525090935861007,0.5195145373563357,0.514611880121332,0.5104107467684533,0.5067641084647853,0.5029038728714335,0.49910074146194094,0.495214570005074,0.49118844228300934,0.487049270726358,0.48233796948075736,0.4778364118252219,0.47375267650684033,0.4702325607995867,0.4673344329879307,0.4644272838552732,0.46214038351664716,0.460355794216734,0.45888741626248425,0.4575324075847509,0.45549774772905127,0.45347443061218584,0.4514830599327927,0.44955629983962514,0.4477303821815712,0.44538184403713293,0.443356142397345,0.44166260742071345,0.4402228977471933,0.438911959481014,0.4369694801876134,0.435132503088792,0.4333889907459781,0.43171575467100465,0.4300935367804569,0.427895248468325,0.42593574549972507,0.4242346704199798,0.4227430732443906,0.4213740681388827,0.41942884000721814,0.417627214643294,0.41594219187267667,0.4143103018858928,0.4126545994973085,0.41031196821304095,0.40801166403166433,0.40576375557686417,0.4035524040568874,0.40136043207835986,0.39860895503101634,0.3960701467362669,0.39380729698050976,0.3918228961235436,0.3900662646594112,0.38788529857147225,0.38589913513282653,0.38403904312318626,0.3822113006779635,0.38033919314594544,0.3777082599536773,0.3752041133660486,0.3730571008232133,0.37148115449695357,0.37061212163247964,0.3696424828420734,0.36939681946912334,0.36984787465443547,0.37087809591334975,0.37229198909810884,0.3733106209637265,0.3742853033756265,0.37491961894943715,0.3748994167390896,0.373971856563738,0.3718007326253184,0.36881253476163156,0.36508770732025647,0.3607748699996327,0.35611045017741805,0.35109259246179314,0.3465714474045119,0.34284359410890364,0.3400664163411956,0.33824904379109816,0.33683472665674885,0.33617828628549884,0.3360176216850897,0.33605714909170015,0.3360505872705446,0.33537252987325766,0.3346570154240143,0.3340684918541123,0.33377261703767447,0.33385213074999104,0.33367920337119944,0.3336675787356191,0.33347909850720847,0.33269678848029305,0.3310052990627037,0.3278215495049225,0.3243855500647137,0.32198491938673945,0.3224944795115185,0.32815846737541643,0.34058073616377277,0.3622154099254334,0.3938776411775784,0.43486523775458025,0.4826741743489485,0.5323730949766585,0.5789370683020522,0.6159593473937512,0.6371235126827353,0.6371898813224806,0.6122948746811655,0.5626503779638881,0.49092614625033426,0.40266642457745494,0.30563906457218715,0.20818678234304167,0.11989844999786327,0.04844933573949205,-0.0008902590109258946,-0.025911752178106328,-0.02818208254316221,-0.010761519009412291,0.020809270476040302,0.06017222154283304,0.10127989526969124,0.13877763417675082,0.17034900478737083,0.19510966385676956,0.21385465387028563,0.22847154271748882,0.24070291077619563,0.25314926570581087,0.2671521389580793,0.2830963998833485,0.30048933377081566,0.31775381273724845,0.3342522220055317,0.3490709338638869,0.3617776222311556,0.37250712482414255,0.3813777586423839,0.3898249172871737,0.398742394620017,0.4086938609614789,0.41974679012929916,0.43097596711807645,0.4421285650870721,0.4523169421271885,0.4607561195099918,0.46698645543445577,0.4705250839188724,0.47235663446609316,0.47327309765235154,0.47410618930090453,0.4754798070778275,0.4770760703941797,0.47937998656665604,0.48183154726215033,0.48362639895447146,0.4839731587211992,0.4817025775653739,0.4775362507279732,0.47179360181512736,0.46506749554445564,0.4580771131515085,0.4510254707337046,0.4448878049133394,0.43985369723285617,0.4357607540849039,0.43218106758181773,0.4282934111681492,0.42385215454328434,0.41872300647450056,0.41303459697351147,0.40709310585549585,0.400909105304811,0.3951242663298092,0.3900094590501786,0.3856646181385778,0.3820051441291739,0.37838701740272446,0.3749740561776,0.3715743332953571,0.3680674287564336,0.3644265490679018,0.3602647557635246,0.3562355609300193,0.3525597675561751,0.3494067562547145,0.34684795400662966,0.34435213113904434,0.3423601193969414,0.340712312599904,0.339207574288169,0.3376682843028818,0.3354879416940885,0.3333128944657668,0.3313033709471166,0.32964245541763615,0.32848861459913403,0.3273989428779118,0.32704200035877884,0.32734154426223466,0.3280962574101491,0.3290435440652189,0.3293864880870727,0.3296373709565177,0.32975065541071624,0.32972643941700286,0.3295984735313037,0.0,0.0,0.0,0.0,0.0,0.0,0.0,0.0,0.0,0.0,0.0,0.0,0.0,0.0,0.0
0.3035365899774939,0.3101590675184444,0.31729673822613713,0.3259548956073213,0.33644325745221443,0.34811097219926534,0.3597970019195502,0.3696793415015785,0.37585777826829203,0.3768308472431541,0.3717825820502691,0.3610879953097618,0.3459125079298212,0.3280381747595423,0.3094403158360643,0.2917532699049872,0.2761995802580131,0.26310526779301074,0.25204061528987776,0.24204978442897454,0.23191621455411165,0.22076263604163238,0.2080404816903797,0.19374802097584892,0.17839937094164704,0.16277563316092963,0.1479571562298634,0.1347678742572017,0.12368388622703122,0.11474895745431953,0.10751511076693962,0.10147598806875117,0.09592426583868273,0.09025341803615311,0.08411156377180305,0.0773704866926621,0.07045695864516148,0.06385047856568005,0.058060716493512174,0.05347417008928657,0.050123324362010925,0.04804846835242581,0.04687780787723436,0.04610076859903085,0.04522924632932233,0.04377392590631236,0.041938498498229365,0.03992989250021585,0.038130163734168845,0.03698432256935808,0.03663807976304453,0.03762506752263834,0.03987307597176546,0.04304823681691232,0.04665719096039719,0.04992768554498488,0.05279144509100453,0.054920890631900754,0.05611913266832183,0.05633005935143629,0.05535053326819453,0.053731728915862684,0.051612799992131336,0.049112845435985764,0.04636926392192307,0.04336330636116308,0.040664487317396185,0.038501620657006595,0.0370484674167569,0.036408468492409855,0.03645423141352133,0.03736065255983299,0.03893922143186753,0.04091882150695925,0.043014481999262624,0.04489196889499849,0.04656493376405098,0.04793336107452682,0.048950683164866574,0.049620495506115386,0.049938440488439165,0.050056692005766255,0.05000426775115496,0.04979108814370672,0.04943331624253462,0.04860016964514384,0.04780838712145164,0.04741737909545414,0.047807260702445745,0.04924613697895386,0.05105340031348963,0.053720516900348375,0.05722055180182072,0.06144408141275151,0.06617401103717746,0.07062278560675271,0.07477985015246916,0.07838074900554318,0.08120746923848486,0.08310188509540103,0.08381732895995236,0.08354958935458628,0.08252149269063735,0.08107348181238505,0.07959287749097244,0.07831208591851045,0.07750624736357303,0.07712139870798693,0.0768303417981015,0.0760838698865438,0.07421239984661908,0.07072041371599895,0.06533264470411214,0.05819084800672902,0.04989743481808867,0.04141692828476196,0.03388969073967539,0.02824612071606037,0.024934897114483382,0.023710999749633536,0.023608985095914154,0.023078556311381317,0.020357600675490542,0.01403765742187,0.0036716668665679993,-0.009723609481422176,-0.0233377894388137,-0.032745458291498455,-0.032370936884626084,-0.01636766601649754,0.020201689781881003,0.08032494948563221,0.1638806369154564,0.26714423938264525,0.38285755425608764,0.5008600735696483,0.6097930630937427,0.6984811037206085,0.7577882518892727,0.7820827745286727,0.7699265017408587,0.7247645839889575,0.6537568503207468,0.5665811993367779,0.47372521499968445,0.3845589733377565,0.30655031759964196,0.243886890709329,0.1974666172151577,0.16536765547069623,0.14357528803076472,0.12780244868346916,0.11399616612034714,0.09931362969572718,0.08249567972063285,0.06364354555712252,0.04425672922160074,0.026154312025512882,0.010962453893883605,-0.0003762960294305288,-0.007914527490600863,-0.012352450039371481,-0.015026435876795165,-0.0173697565156129,-0.020471698510150203,-0.0248022606484176,-0.029999786042518798,-0.035150021544123035,-0.03904481376371019,-0.04056710099086988,-0.03902059460190184,-0.034384688551129396,-0.02731529451515801,-0.018941859340447967,-0.010520635852137125,-0.0029988215831522843,0.003168345507838281,0.008269634018616488,0.013262452918821882,0.01952582928659564,0.028553707037691077,0.041318245354032515,0.058127206835209166,0.07841841611433176,0.10082608720354354,0.12331361392727305,0.1441604937946215,0.161550122379523,0.17430016588714678,0.18212634512049142,0.18531910133420593,0.18591330061071426,0.1854039991961849,0.18507293708695596,0.1857204404016372,0.1873043260233259,0.1897278532031116,0.19184188588780163,0.19216888818409367,0.18931453568278298,0.18229467327337004,0.17101989861980413,0.15600256927368555,0.13838067815942304,0.11966625615434527,0.10139340302008826,0.08488619682602982,0.07085853037469092,0.05939267853216949,0.05001797662590757,0.04192899108639917,0.034206533024697824,0.02610483152530432,0.017224047957800248,0.00758007280740456,-0.002421245784914788,-0.012205824612204194,-0.021142748982513535,-0.02875671082145261,-0.03485783101109845,-0.03955030020746209,-0.0432882550686369,-0.04661485646444112,-0.05004040020233502,-0.05389134105952901,-0.05820361902785272,-0.06274832485197115,-0.06706452029064049,-0.070610363749167,-0.07292485110795958,-0.07377340952007434,-0.07318380827890902,-0.07147881953176421,-0.06916199049072476,-0.06677101558272043,-0.06478859901113733,-0.06331304365018096,-0.06230373016587912,-0.06152059523747819,-0.06061718005748129,-0.059373023636629774,-0.05739156001029038,-0.05467205153909189,-0.051414802271896334,-0.047939020691688206,-0.044718682427002936,-0.041783837492278285,-0.039251962573165794,-0.037114901778907645,-0.03526086132589513,-0.03370087227997064,-0.03203245992207977,-0.030150156750638382,-0.028043278414310674,-0.025778875742232695,-0.023588001596797574,-0.021438352096538747,-0.019443981084721833,-0.017705820604891277,-0.016296890158570266,-0.015313095505416452,-0.014673922924252255,-0.01432685063213271,-0.014186434878050267,-0.01414262309232355,-0.014104683349184025,-0.013934353938374364,-0.0135428737315069,-0.012889058798551484,-0.011988356026076835,-0.010906047801481666,-0.009759279825748151,-0.008636180370682556,-0.007595728082007538,-0.00665390975945358,-0.005791023860296399,-0.004950100821678886,-0.004004735529147073,-0.002824456275027415,-0.0013194634928303246,0.0005010825687845103,0.0025553070871255964,0.004750006342091019,0.0069685473615351415,0.009099221024283689,0.0,0.0,0.0,0.0,0.0,0.0,0.0,0.0,0.0,0.0,0.0,0.0,0.0,0.0,0.0,0.4817025775653739,0.4775362507279732,0.47179360181512736,0.46506749554445564,0.4580771131515085,0.4510254707337046,0.4448878049133394,0.43985369723285617,0.4357607540849039,0.43218106758181773,0.4282934111681492,0.42385215454328434,0.41872300647450056,0.41303459697351147,0.40709310585549585,0.400909105304811,0.3951242663298092,0.3900094590501786,0.3856646181385778,0.3820051441291739,0.37838701740272446,0.3749740561776,0.3715743332953571,0.3680674287564336,0.3644265490679018,0.3602647557635246,0.3562355609300193,0.3525597675561751,0.3494067562547145,0.34684795400662966,0.34435213113904434,0.3423601193969414,0.340712312599904,0.339207574288169,0.3376682843028818,0.3354879416940885,0.3333128944657668,0.3313033709471166,0.32964245541763615,0.32848861459913403,0.3273989428779118,0.32704200035877884,0.32734154426223466,0.3280962574101491,0.3290435440652189,0.3293864880870727,0.3296373709565177,0.32975065541071624,0.32972643941700286,0.3295984735313037,0.32885357019168104,0.32823833622753884,0.3278064693902658,0.3275377639316114,0.3273664053267064,0.32668109691288466,0.3261032289215233,0.32565185886144504,0.32533144269787034,0.32513433712210915,0.32452958942335514,0.3241327601031127,0.3239483992404046,0.3239338507373534,0.32401944771980157,0.3236413829147767,0.32335084036139594,0.3231482395243712,0.3230119648040121,0.32290455831749404,0.3223146409132277,0.3217818338901343,0.32131823297342543,0.3209145327631659,0.3205524599985402,0.3196815707643615,0.31893685577696146,0.31841483932189707,0.3181727190317354,0.31820036167958643,0.317803391194829,0.31752244019530645,0.31731633960250283,0.3171376002986132,0.3169491729807034,0.31655481682734593,0.3162599545927086,0.31601721015491746,0.31580203919591865,0.31569798428182033,0.3161874208832739,0.3175197189225265,0.3197205555183769,0.32262803850247795,0.32593070855376133,0.32934960644867156,0.33254557954797903,0.3349921643535568,0.33626173529765757,0.3361634328257024,0.3347761095807408,0.33264967701152465,0.3301505993519473,0.32758269657163025,0.325128498041384,0.32263893841922586,0.3204040537203477,0.31830338306161726,0.3162159890929431,0.3140935632570655,0.31160343901182597,0.30930707649371786,0.3072768088546435,0.30543805371256005,0.30357039022653065,0.30094383068627956,0.29799231902703166,0.2950380244984267,0.29292239571603995,0.2930472171959957,0.2966742762117142,0.30631577378548863,0.32350448052231257,0.3486728460623853,0.3805779311277367,0.41534982077930593,0.44839289922274167,0.4730320520820927,0.4819006482912269,0.4681086450594777,0.4259024941650878,0.35389925684786405,0.2540052627288308,0.1321708560958516,-0.0021539265023015628,-0.13790314980351892,-0.2621193728829122,-0.3637861839449701,-0.43504402657365554,-0.4724164980640808,-0.4778466431484537,-0.45615962246402336,-0.41561550633804045,-0.3655542027974144,-0.31453037908496506,-0.26941340946948233,-0.23256052662990973,-0.2036229542615112,-0.1797131506455327,-0.15664426010584934,-0.13093105461667306,-0.09905521834965378,-0.060001935026408805,-0.014824024080195784,0.0337955032725356,0.08178041130998273,0.12642322530955624,0.165424524586342,0.1978651857974747,0.22423526665092053,0.24554645653721666,0.2644956803391305,0.2831618762895261,0.3029786213554001,0.32443653295199526,0.3465518026496089,0.36878439845574834,0.3898538601098813,0.4086631210152103,0.42463779925307,0.4373765487018424,0.448168777682522,0.45819266498030664,0.46859237531429404,0.480096679666263,0.49222712207349095,0.5049884383373696,0.5172967300147573,0.5278557408560403,0.5355555600794561,0.5392326202273252,0.5397231486155846,0.5378583076319055,0.5348364737133201,0.5318714840773622,0.5295191643322854,0.5283583710267759,0.5282191442127454,0.5284575405637625,0.5281874080752683,0.5265147823376125,0.5227647898248916,0.5171475228886314,0.510376373173191,0.5033671338486257,0.4967694379641221,0.49097330759158053,0.48615586717057707,0.4821545436927281,0.4785468596219831,0.47459209627631205,0.46994050729085923,0.4645102747342814,0.4584990307791876,0.4522695530645339,0.4459004308813675,0.4399427076558129,0.43462744017107896,0.4300141437088761,0.42599224650708467,0.42193757500711354,0.4180139914582691,0.4140566008011662,0.4099728974676789,0.40575561111308134,0.40104136507562727,0.3964798384559067,0.39227409729119317,0.38858815980364714,0.38551897571907795,0.382607190377471,0.3803939064942382,0.3787700827415344,0.3775399548575744,0.3764729932436321,0.374861131865258,0.37320379436135565,0.3714355907085333,0.36951397071262687,0.36742701076818635,0.3646736711766009,0.3619856381656157,0.359396625874319,0.3568791842528057,0.35438300726175964,0.3513544901109788,0.3484994557457504,0.3458679345442372,0.3434806548053196,0.3413390037553329,0.3389084463763649,0.3368625567707169,0.3351633799307085,0.3337039815098902,0.3323504631662435,0.33048370820989753,0.3286899154136855,0.32693676525939297,0.3251761556061344,0.3233619225771542,0.320988333410074,0.3186821342527372,0.31645899657127396,0.3143002625015798,0.3121780438352057,0.30961127810741007,0.3072138948647849,0.30500656663346143,0.30295713849440503,0.3009941650932571,0.29857435061601884,0.2962027132263513,0.29383563720030603,0.2914275712531582,0.288962036798668,0.2860220304462659,0.2832592651530017,0.2807928174696197,0.27868553675278535,0.2769299085040789,0.2750066650754805,0.2733495773451185,0.2718401830905874,0.2703407905338864,0.268748233569547,0.26641462222923473,0.2641439013031961,0.26223339145959373,0.26097712861438543,0.26056655863501516,0.2602108378457862,0.26062753662084664,0.26174435255459233,0.26340716719508506,0.26540317004565633,0.0,0.0,0.0,0.0,0.0,0.0,0.0,0.0,0.0,0.0,0.0,0.0,0.0,0.0,0.0
0.5008600735696483,0.6097930630937427,0.6984811037206085,0.7577882518892727,0.7820827745286727,0.7699265017408587,0.7247645839889575,0.6537568503207468,0.5665811993367779,0.47372521499968445,0.3845589733377565,0.30655031759964196,0.243886890709329,0.1974666172151577,0.16536765547069623,0.14357528803076472,0.12780244868346916,0.11399616612034714,0.09931362969572718,0.08249567972063285,0.06364354555712252,0.04425672922160074,0.026154312025512882,0.010962453893883605,-0.0003762960294305288,-0.007914527490600863,-0.012352450039371481,-0.015026435876795165,-0.0173697565156129,-0.020471698510150203,-0.0248022606484176,-0.029999786042518798,-0.035150021544123035,-0.03904481376371019,-0.04056710099086988,-0.03902059460190184,-0.034384688551129396,-0.02731529451515801,-0.018941859340447967,-0.010520635852137125,-0.0029988215831522843,0.003168345507838281,0.008269634018616488,0.013262452918821882,0.01952582928659564,0.028553707037691077,0.041318245354032515,0.058127206835209166,0.07841841611433176,0.10082608720354354,0.12331361392727305,0.1441604937946215,0.161550122379523,0.17430016588714678,0.18212634512049142,0.18531910133420593,0.18591330061071426,0.1854039991961849,0.18507293708695596,0.1857204404016372,0.1873043260233259,0.1897278532031116,0.19184188588780163,0.19216888818409367,0.18931453568278298,0.18229467327337004,0.17101989861980413,0.15600256927368555,0.13838067815942304,0.11966625615434527,0.10139340302008826,0.08488619682602982,0.07085853037469092,0.05939267853216949,0.05001797662590757,0.04192899108639917,0.034206533024697824,0.02610483152530432,0.017224047957800248,0.00758007280740456,-0.002421245784914788,-0.012205824612204194,-0.021142748982513535,-0.02875671082145261,-0.03485783101109845,-0.03955030020746209,-0.0432882550686369,-0.04661485646444112,-0.05004040020233502,-0.05389134105952901,-0.05820361902785272,-0.06274832485197115,-0.06706452029064049,-0.070610363749167,-0.07292485110795958,-0.07377340952007434,-0.07318380827890902,-0.07147881953176421,-0.06916199049072476,-0.06677101558272043,-0.06478859901113733,-0.06331304365018096,-0.06230373016587912,-0.06152059523747819,-0.06061718005748129,-0.059373023636629774,-0.05739156001029038,-0.05467205153909189,-0.051414802271896334,-0.047939020691688206,-0.044718682427002936,-0.041783837492278285,-0.039251962573165794,-0.037114901778907645,-0.03526086132589513,-0.03370087227997064,-0.03203245992207977,-0.030150156750638382,-0.028043278414310674,-0.025778875742232695,-0.023588001596797574,-0.021438352096538747,-0.019443981084721833,-0.017705820604891277,-0.016296890158570266,-0.015313095505416452,-0.014673922924252255,-0.01432685063213271,-0.014186434878050267,-0.01414262309232355,-0.014104683349184025,-0.013934353938374364,-0.0135428737315069,-0.012889058798551484,-0.011988356026076835,-0.010906047801481666,-0.009759279825748151,-0.008636180370682556,-0.007595728082007538,-0.00665390975945358,-0.005791023860296399,-0.004950100821678886,-0.004004735529147073,-0.002824456275027415,-0.0013194634928303246,0.0005010825687845103,0.0025553070871255964,0.004750006342091019,0.0069685473615351415,0.009099221024283689,0.011061778986725456,0.012853064481142134,0.014644350173956079,0.016737791933923822,0.01951790554139771,0.02337306042113389,0.028571018046785777,0.035251971593416205,0.04330911114084511,0.05234583730393549,0.06168646893489175,0.07045650288898062,0.07776959652246354,0.08285106994680651,0.08517376906647327,0.08454016893324248,0.08114178371576172,0.07554166051826756,0.06855144468285833,0.06107599893538673,0.053919191585352334,0.04772144003072001,0.04284328127612087,0.03933707027524494,0.03697822880430019,0.03530360672195388,0.03385480053273641,0.032220753002137587,0.030147161420289285,0.027587846171184986,0.0246348517392659,0.02170185314287391,0.019302295008261153,0.017980406295648496,0.01819746353806977,0.020127263739990412,0.023904430957037714,0.029379962922369603,0.036180882757839,0.04374450778127333,0.05121133613582667,0.05800583392571568,0.06354870803882402,0.06740179658877204,0.0692915520244769,0.06888479913769023,0.06647573815196017,0.062453810891611956,0.05737936937516406,0.0518934154103841,0.04633778828942879,0.0414743721429998,0.03776623094680767,0.03545332428634038,0.0344952787962913,0.03425676026561752,0.03453533911220385,0.034940337004638805,0.03518979402101228,0.03516891135506239,0.034661463910440136,0.03413421490655926,0.0339582027893508,0.034468666614635615,0.03584254391383349,0.0377986782703938,0.04031379081928593,0.043067347920908536,0.045736981524228275,0.048110491239874306,0.0500014941161967,0.05176331565577898,0.05379112397263592,0.05653820308065403,0.060378438565915106,0.0653944971222291,0.0715990860222107,0.0786874737718935,0.08619480162245516,0.09363102615729346,0.1005754629010446,0.10698995738277724,0.11311569982336116,0.11950058678886612,0.1268836137486718,0.13598260477311913,0.1473603042453739,0.16115609187226113,0.17701017372188946,0.19408687407511047,0.2112028149713559,0.22719013378922617,0.24107406769730638,0.25238214455001673,0.26129013440154913,0.26855927348420244,0.2754428987984405,0.2831638242813265,0.29258515782886896,0.30389262436870873,0.31641663026646955,0.32880290569947274,0.33916404074928214,0.34556452086197653,0.3464951143358683,0.34123132381966875,0.33009442783354226,0.31428936461161416,0.2956518822877703,0.27622041868276503,0.2577538262219519,0.24147006690301911,0.22775143510696202,0.2162172134479428,0.2059457230296618,0.19577221086993318,0.18475518921923573,0.17231429571778523,0.1584027942602483,0.14348075732612278,0.1283138450284916,0.11387675852215019,0.10094845026852287,0.08998075650624379,0.0810157916225838,0.07366928909503388,0.06741743510660886,0.061586804820433376,0.05560697689013811,0.04915784607568431,0.042172072351413,0.03503948571107437,0.028220122570281527,0.022190834432084718,0.01729990052878483,0.0,0.0,0.0,0.0,0.0,0.0,0.0,0.0,0.0,0.0,0.0,0.0,0.0,0.0,0.0,-0.13790314980351892,-0.2621193728829122,-0.3637861839449701,-0.43504402657365554,-0.4724164980640808,-0.4778466431484537,-0.45615962246402336,-0.41561550633804045,-0.3655542027974144,-0.31453037908496506,-0.26941340946948233,-0.23256052662990973,-0.2036229542615112,-0.1797131506455327,-0.15664426010584934,-0.13093105461667306,-0.09905521834965378,-0.060001935026408805,-0.014824024080195784,0.0337955032725356,0.08178041130998273,0.12642322530955624,0.165424524586342,0.1978651857974747,0.22423526665092053,0.24554645653721666,0.2644956803391305,0.2831618762895261,0.3029786213554001,0.32443653295199526,0.3465518026496089,0.36878439845574834,0.3898538601098813,0.4086631210152103,0.42463779925307,0.4373765487018424,0.448168777682522,0.45819266498030664,0.46859237531429404,0.480096679666263,0.49222712207349095,0.5049884383373696,0.5172967300147573,0.5278557408560403,0.5355555600794561,0.5392326202273252,0.5397231486155846,0.5378583076319055,0.5348364737133201,0.5318714840773622,0.5295191643322854,0.5283583710267759,0.5282191442127454,0.5284575405637625,0.5281874080752683,0.5265147823376125,0.5227647898248916,0.5171475228886314,0.510376373173191,0.5033671338486257,0.4967694379641221,0.49097330759158053,0.48615586717057707,0.4821545436927281,0.4785468596219831,0.47459209627631205,0.46994050729085923,0.4645102747342814,0.4584990307791876,0.4522695530645339,0.4459004308813675,0.4399427076558129,0.43462744017107896,0.4300141437088761,0.42599224650708467,0.42193757500711354,0.4180139914582691,0.4140566008011662,0.4099728974676789,0.40575561111308134,0.40104136507562727,0.3964798384559067,0.39227409729119317,0.38858815980364714,0.38551897571907795,0.382607190377471,0.3803939064942382,0.3787700827415344,0.3775399548575744,0.3764729932436321,0.374861131865258,0.37320379436135565,0.3714355907085333,0.36951397071262687,0.36742701076818635,0.3646736711766009,0.3619856381656157,0.359396625874319,0.3568791842528057,0.35438300726175964,0.3513544901109788,0.3484994557457504,0.3458679345442372,0.3434806548053196,0.3413390037553329,0.3389084463763649,0.3368625567707169,0.3351633799307085,0.3337039815098902,0.3323504631662435,0.33048370820989753,0.3286899154136855,0.32693676525939297,0.3251761556061344,0.3233619225771542,0.320988333410074,0.3186821342527372,0.31645899657127396,0.3143002625015798,0.3121780438352057,0.30961127810741007,0.3072138948647849,0.30500656663346143,0.30295713849440503,0.3009941650932571,0.29857435061601884,0.2962027132263513,0.29383563720030603,0.2914275712531582,0.288962036798668,0.2860220304462659,0.2832592651530017,0.2807928174696197,0.27868553675278535,0.2769299085040789,0.2750066650754805,0.2733495773451185,0.2718401830905874,0.2703407905338864,0.268748233569547,0.26641462222923473,0.2641439013031961,0.26223339145959373,0.26097712861438543,0.26056655863501516,0.2602108378457862,0.26062753662084664,0.26174435255459233,0.26340716719508506,0.26540317004565633,0.26702884272078686,0.26855792438433146,0.26975418507458954,0.27037791812952044,0.2702397814562975,0.26916100268703463,0.2674039223013331,0.264999136230859,0.26203833189930137,0.2587096426050737,0.25509257013642234,0.25188870660579143,0.24940555768203831,0.24782636574364036,0.24717950375384976,0.2469995569079087,0.24748437177732138,0.2483396448480623,0.24925847696506453,0.25001601367646425,0.25012769081365194,0.25019827572457765,0.2505107737125319,0.2513459051281887,0.2528525235990787,0.25445427369440693,0.2563426629654323,0.2580180611790894,0.25889669857652026,0.2585486417290374,0.2564603087877611,0.2539384754897419,0.25267007600815855,0.25512424674743794,0.2642447598589961,0.2823695839526311,0.3123273756325478,0.35510221986056234,0.4097267746003519,0.47293890400540595,0.5386435815155952,0.6001683740258993,0.6494671417435463,0.6787356397498521,0.6816330481518159,0.6538147085891696,0.5955559994129205,0.5103903622149731,0.4053068541175458,0.2898761017829712,0.1743741466318236,0.06999948939122844,-0.014256103023607506,-0.07234526368848239,-0.10188084458587349,-0.10475849095071296,-0.08492560202518484,-0.04892868282814194,-0.00415121643718412,0.042474963855758927,0.08501138571534583,0.12072469715355426,0.14871531446016842,0.1700033812968294,0.1868307722973913,0.20135617762559851,0.21637637554930395,0.2333892187341608,0.2527850692058067,0.2739350069431867,0.2950792238075313,0.3152169597155606,0.33319836699637717,0.3484423036873021,0.361039241588982,0.3712181628008241,0.38044814746098254,0.3897893434482273,0.39997970316577625,0.4112337218897774,0.42278967374935544,0.4343644275303642,0.4451045210098588,0.45426209817310087,0.46142820219057273,0.46624791915202973,0.4696777649158102,0.4725381235071611,0.475640949745945,0.4795212121688687,0.48371944173990283,0.4884888622576988,0.49304240989121945,0.49638514641305526,0.49761422214716466,0.4955251722071974,0.49098267835130055,0.4844762443325786,0.4767993645017745,0.46885741926725316,0.46097982245469343,0.4541914151993304,0.44866146270929047,0.4441452631645645,0.4401006163873417,0.43561513102016575,0.4303232030704862,0.42410817629278835,0.4171843445417295,0.40997527088008434,0.40263143349945363,0.3957915395314226,0.3897242167739863,0.38447093622494255,0.37984992537282697,0.37516486354784906,0.3704361864645648,0.3654425907332859,0.3601052972615412,0.354501770122279,0.34844220485926436,0.34265132778701785,0.3374227650009938,0.33292579404449363,0.32915361487173106,0.3254983599771491,0.3221738040233082,0.31884969783435513,0.31522654623563134,0.3111515752193829,0.3062643832585606,0.3014617237313112,0.29728899799002745,0.29434277980373064,0.29314953556703477,0.0,0.0,0.0,0.0,0.0,0.0,0.0,0.0,0.0,0.0,0.0,0.0,0.0,0.0,0.0
