-0.05307695411425035,0.04470821201236005,0.17257934527851507,0.3111184035910448,0.4862418293983151,0.6979585967348095,0.8037927279056117,0.6936471464501519,0.4473974509712245,0.2312688145754388,0.043095740040032346,-0.1128119479963644,0.013961531433888496,0.03051250802386366,-0.00918576216386645,-0.02525426280740553,-0.0025778869921118824,0.024307871776383088,0.007914808480780303,-0.02584531710696326,0.005068692991772829,0.03805914547199255,0.008369495616746209,-0.021386253545811126,0.00492938095953145,0.04199108858310375,0.04231470805984209,0.01670417201843406,0.025616201089266617,0.06258382425871745,0.04773985610354357,0.002681623500348569,0.005135692407161215,0.050793224771322885,0.04035700984821085,-0.0024173311690667983,0.01314922925069786,0.0676358187922511,0.08549202161348737,0.07320247429577678,0.08906321160410978,0.12876394630493362,0.1404997723418865,0.1134828351401598,0.10168935968074397,0.15045969925649874,0.17776296067265332,0.1533793240796688,0.14855290603217106,0.19998583909234627,0.2321205574964393,0.2017808865788296,0.173730794495543,0.20409793622421785,0.2259560121846651,0.20691891940283336,0.14914064222042933,0.1562389556035305,0.17639541188381827,0.144837825787264,0.08962265100779285,0.099252746967884,0.11974800445650875,0.09281016586192607,0.046493417571919854,0.043392699019263466,0.06622615263556113,0.032946921834261504,-0.028392051609027257,-0.016337904324691146,0.017288273439090455,-0.0030801432183264893,-0.03859208400905311,-0.0396020556891515,0.002521405932012317,0.010060484500815484,-0.02562021475175669,-0.033279572363060284,0.010831791543199059,0.031160419252210983,-0.008988331876996427,-0.02541500045212523,0.005633598892967786,0.03235415355236508,-0.0035331554533114453,0.027509559084307487,0.18162043369474426,0.3897255553873822,0.5805912770009474,0.752064436938027,0.8998301445763345,0.937534358368828,0.7788185376177438,0.4776431484052899,0.18727076187146527,0.004832083159821864,-0.09775503091224194,0.013339207448907998,0.027235702656174126,0.006532202274963519,-0.029350203677603912,-0.004860980064713845,0.038976588821408746,0.02875728945431485,-0.011777113493397978,-0.00923199956033988,0.025594153869602447,0.012821312260862852,-0.028124687742415003,-0.01952976975345433,0.010540337103911815,0.016751150486067613,-0.031120082172867488,-0.03376663308520562,0.013132834931045641,0.018914519874519888,-0.022891229249265448,-0.032401115267845185,0.014140855877318809,0.02607597472081506,-0.005219148304477385,-0.012809120748449384,0.02274777215134626,0.06044733210614494,0.035538160334945626,0.017115772066384913,0.06779902663283166,0.10556535119905268,0.1023624856468986,0.09922007622310193,0.15012021377289891,0.2011031896167107,0.21116150088482144,0.2126867255201824,0.22727525531579665,0.2937930271789493,0.0,0.0,0.0,0.0,0.0,0.0,0.0,0.0,0.0,0.0,0.0,0.0,0.0,0.0,0.0,0.0,0.0,0.0,0.0,0.0,0.0,0.0,0.0,0.0,0.0,0.0,0.0,0.0,0.0,0.0,0.0,0.0,0.0,0.0,0.0,0.0,0.0,0.0,0.0,0.0,0.0,0.0,0.0,0.0,0.0,0.0,0.0,0.0,0.0,0.0,0.0,0.0,0.0,0.0,0.0,0.0,0.0,0.0,0.0,0.0,0.0,0.0,0.0,0.0,0.0,0.0,0.0,0.0,0.0,0.0,0.0,0.0,0.0,0.0,0.0,0.0,0.0,0.0,0.0,0.0,0.0,0.0,0.0,0.0,0.0,0.0,0.0,0.0,0.0,0.0,0.0,0.0,0.0,0.0,0.0,0.0,0.0,0.0,0.0,0.0,0.0,0.0,0.0,0.0,0.0,0.0,0.0,0.0,0.0,0.0,0.0,0.0,0.0,0.0,0.0,0.0,0.0,0.0,0.0,0.0,0.0,0.0,0.0,0.0,0.0,0.0,0.0,0.0,0.0,0.0,0.0,0.0,0.0,0.0,0.0,0.0,0.0,0.0,0.0,0.0,0.0,0.0,0.0,0.0,0.0,0.0,0.0,0.0,0.0,0.0,0.0,0.0,0.0,0.0,0.0,0.0,0.0,0.0,0.0,0.0,0.0,0.0,0.0,0.0,0.1805141408657056,0.19792520040936595,0.2300485687581768,0.2660570143982449,0.3275045466001629,0.3927673229796781,0.4790787328626006,0.5626525064368411,0.4858527622503471,0.20545858721843435,-0.1123472323639908,-0.3618300674126415,-0.3962269205548707,-0.1658875936436188,-0.0010776350283802463,0.1220006414948899,0.1839685031357906,0.21078195453897575,0.2132842980271628,0.23254134697213785,0.2232648055846495,0.24163004058767976,0.2423464771612144,0.2405694622527193,0.2428178268033198,0.24265624249589765,0.2228540365817572,0.2244676268801846,0.2324228391595773,0.25107381146659663,0.2394381722954456,0.23209120716837345,0.23554226552641525,0.2303936235327058,0.2361052488718484,0.2375947401645097,0.26079621080639703,0.2539248477539241,0.2558652288589752,0.2428947063630238,0.2431011788251276,0.25003011323499325,0.2658610653503881,0.2755017322306036,0.2832879162460029,0.29355404225828746,0.2933625101416684,0.2827272084110775,0.29188412372773703,0.3122089598840312,0.33507596125172545,0.3324283765413878,0.3474490393439061,0.3520778608481593,0.35279423209364835,0.3301698709087057,0.3187453828627205,0.3228361577168858,0.3316442090260593,0.3257346318903556,0.3029414717367534,0.3042736666888457,0.301656205971229,0.27780668778260953,0.27372950588985834,0.25918640476628085,0.2492731076759153,0.22238399878646853,0.1957710851329052,0.17373230541926382,0.16272344556264595,0.15192881427071656,0.13700838483937866,0.13952728374232815,0.12923812676760832,0.121228179505106,0.10251932246372128,0.11842113386065115,0.1127778540975122,0.11362734814131008,0.1079892217684952,0.12821786005703942,0.1483788042896114,0.1468546067965567,0.16031538186339392,0.16498337958492434,0.17809774378032495,0.1996261848039652,0.24896495713789354,0.334715186790791,0.4374120160561999,0.5742889568160364,0.7172419864538736,0.6892052121827823,0.4253681105673117,0.04657575403597684,-0.332805390028726,-0.43649713198642,-0.1760075336431908,-0.013303837042198723,0.07971695403602233,0.12036496933301427,0.15833233103287894,0.1742281253032335,0.1659312551979495,0.16801979579457935,0.16541799293915982,0.1581610348581695,0.1657127173045204,0.1643595238561764,0.1347047616644923,0.1156392199323978,0.1179882754486616,0.13098846612106596,0.12876395743659505,0.12861478130967618,0.10034615232819853,0.1109098150881351,0.12579218723572946,0.12127326221059286,0.10601479551873062,0.1037897187792578,0.12109982498940222,0.1342228232389564,0.1280711213925425,0.13505062970741766,0.1443900967154581,0.15395289996934647,0.1508075647288383,0.1673571939274515,0.20578057150203893,0.2358732535761534,0.2252709413020017,0.2214847209996037,0.23316568340147675,0.24305789899466865,0.0,0.0,0.0,0.0,0.0,0.0,0.0,0.0,0.0,0.0,0.0,0.0,0.0,0.0,0.0,0.0,0.0,0.0,0.0,0.0,0.0,0.0,0.0,0.0,0.0,0.0,0.0,0.0,0.0,0.0,0.0,0.0,0.0,0.0,0.0,0.0,0.0,0.0,0.0,0.0,0.0,0.0,0.0,0.0,0.0,0.0,0.0,0.0,0.0,0.0,0.0,0.0,0.0,0.0,0.0,0.0,0.0,0.0,0.0,0.0,0.0,0.0,0.0,0.0,0.0,0.0,0.0,0.0,0.0,0.0,0.0,0.0,0.0,0.0,0.0,0.0,0.0,0.0,0.0,0.0,0.0,0.0,0.0,0.0,0.0,0.0,0.0,0.0,0.0,0.0,0.0,0.0,0.0,0.0,0.0,0.0,0.0,0.0,0.0,0.0,0.0,0.0,0.0,0.0,0.0,0.0,0.0,0.0,0.0,0.0,0.0,0.0,0.0,0.0,0.0,0.0,0.0,0.0,0.0,0.0,0.0,0.0,0.0,0.0,0.0,0.0,0.0,0.0,0.0,0.0,0.0,0.0,0.0,0.0,0.0,0.0,0.0,0.0,0.0,0.0,0.0,0.0,0.0,0.0,0.0,0.0,0.0,0.0,0.0,0.0,0.0,0.0,0.0,0.0,0.0,0.0,0.0,0.0,0.0,0.0,0.0,0.0,0.0,0.0,0
0.8646518566013469,0.6255201078650013,0.3090926498785905,0.08537948369035525,-0.07433500710916018,0.024245703855827395,0.054326527112448175,0.03356731008302166,-0.01374823570962022,-0.005927390225244592,0.032737700928402134,0.038210640846755566,-0.007176180931215491,-0.015104394189375082,0.012215198005908869,0.041660594084357946,-0.019507490198630392,-0.034391841974823416,0.019088252127677452,0.030534058042793837,-0.006675127250824304,-0.02850271162456945,0.018048304965341044,0.03583055370226729,0.007186204325823469,-0.03034162146757626,0.013783247952646528,0.04241602089857622,0.04010951080821907,-0.0019595452273750025,0.026619832531958158,0.04857496421064583,0.033001986965990236,0.0108220619231893,0.032828592396950934,0.06811725354951162,0.05707896822317,0.026218083204884172,0.050615655263191436,0.07507794065763104,0.07753162123520699,0.03811104869760276,0.060600720773829476,0.10747004899715892,0.0992352822539868,0.06902243954398384,0.0830777223561506,0.13257344875827656,0.13581602836490858,0.10826519867619074,0.11616505873292822,0.16393389940721612,0.16766762097054574,0.11632679708954223,0.1136895158006284,0.14871493079833886,0.14191222475376405,0.08444728458358837,0.0668473236405958,0.09573341375460316,0.0916125279878818,0.041232518067116745,0.028494768409193894,0.053394737981864164,0.06514270265823331,0.02178085231524808,0.0072096300461583565,0.0390880127084701,0.04454508609184636,0.014743052632986324,-0.0039549768472725965,0.02598185377911276,0.04713883085452797,0.01755742752276894,-0.016399308991212818,0.024752259416137675,0.04606175447649277,0.021028076736092798,-0.015024836724877475,0.02180384140980341,0.0520210177315226,0.027046123233818758,-0.00896377093078285,0.012436768847837064,0.049291765518899015,0.026524501182037814,-0.022747771547184614,0.00966560563330094,0.053105787268858326,0.036913879576823065,0.0052490759534971655,0.004478430470167429,0.045640247042616884,0.0404107711972526,-0.013420215209826544,-0.0054528249128575285,0.0444394348557857,0.032477855595551344,-0.017049869217087392,0.006257556035991753,0.06265597009245999,0.04836786831510858,0.0053464189161396706,-0.0023749992877588003,0.04286801565596876,0.04612978386129035,0.002994266121788232,-0.009257133375713121,0.035871933963477036,0.05668447918696565,0.011228148381579022,0.003281290341008839,0.03726016172098109,0.06900400739434973,0.019023162023036014,-0.006696584222925079,0.02275692540167794,0.047766628797865085,0.019755576303943177,-0.01490747506646693,0.03209899256564636,0.03491752458429947,0.011213446763424513,-0.010307863488755698,0.03217959383448911,0.056979857102042036,0.024349663428089103,-0.006092498975245657,0.03852000782214103,0.05441078098713542,0.02833308010627733,-0.0043831119113780116,0.02471272484356537,0.047172721524404736,0.012213247675875007,-0.016131210312993617,0.021757682391825083,0.059641214159520464,0.031280564570869814,0.00954346539669277,0.0,0.0,0.0,0.0,0.0,0.0,0.0,0.0,0.0,0.0,0.0,0.0,0.0,0.0,0.0,0.0,0.0,0.0,0.0,0.0,0.0,0.0,0.0,0.0,0.0,0.0,0.0,0.0,0.0,0.0,0.0,0.0,0.0,0.0,0.0,0.0,0.0,0.0,0.0,0.0,0.0,0.0,0.0,0.0,0.0,0.0,0.0,0.0,0.0,0.0,0.0,0.0,0.0,0.0,0.0,0.0,0.0,0.0,0.0,0.0,0.0,0.0,0.0,0.0,0.0,0.0,0.0,0.0,0.0,0.0,0.0,0.0,0.0,0.0,0.0,0.0,0.0,0.0,0.0,0.0,0.0,0.0,0.0,0.0,0.0,0.0,0.0,0.0,0.0,0.0,0.0,0.0,0.0,0.0,0.0,0.0,0.0,0.0,0.0,0.0,0.0,0.0,0.0,0.0,0.0,0.0,0.0,0.0,0.0,0.0,0.0,0.0,0.0,0.0,0.0,0.0,0.0,0.0,0.0,0.0,0.0,0.0,0.0,0.0,0.0,0.0,0.0,0.0,0.0,0.0,0.0,0.0,0.0,0.0,0.0,0.0,0.0,0.0,0.0,0.0,0.0,0.0,0.0,0.0,0.0,0.0,0.0,0.0,0.0,0.0,0.0,0.0,0.0,0.0,0.0,0.0,0.0,0.0,0.0,0.0,0.6246324565009318,0.523974460901087,0.22171422705606947,-0.08788767170232442,-0.4137119330966469,-0.38263907824242255,-0.13156877707394704,0.025992031636297992,0.13866832822842312,0.21313210343910866,0.2317661569751834,0.24760967070320705,0.23862712934994074,0.24239900119212635,0.2390953850169076,0.2155093033495701,0.2158417595924262,0.23350763898046814,0.20230352594155607,0.1973397330058509,0.19657157043304294,0.20224185947236775,0.20996830278206066,0.20432736558914552,0.19859905145610807,0.18839798035354435,0.2112906389000649,0.20548053572715516,0.18865975181088485,0.1674791145027314,0.19274941274306806,0.18279788341373068,0.19284960480122185,0.17435061471663785,0.19135629418657116,0.2063510712429341,0.19948277909123036,0.195059124069262,0.2218029055897013,0.2267382737274387,0.2319618078518499,0.23528045595273175,0.24774827767713864,0.2428813871153381,0.2361475192594818,0.2584695114054649,0.2590713460694247,0.2799136136840168,0.26580161857232576,0.26752543721973976,0.2872968217271333,0.2897894174136885,0.2639639308026889,0.28268533875687524,0.2752943574344561,0.2881566875192316,0.270482662470374,0.2598029847389278,0.2472780542305873,0.219650881347358,0.20120000925548065,0.15879370651283795,0.15424518118572486,0.1213002231977041,0.11073024919871814,0.06731989760722189,0.04625551540956156,0.03868980090549567,0.018110859162143802,-4.0538559106763597e-05,-0.0003237115511645451,-0.0004186539215161562,0.006283168663159277,-0.00010621262428781896,0.00027001637203920227,0.002980182210025964,-0.011863706613202869,-0.013364615880630572,-0.012577243966384368,0.0015254328377445985,-0.004189271809513031,-0.001028785033873823,-0.019917357578566684,-0.005665377921315168,0.01080489307819993,0.0007797780155830624,-0.004837232939692393,0.004984939283512219,0.001533018894575418,-0.02182584237799324,-0.0032750978949134873,-0.002438616002930307,-0.006074460849858003,-0.016396781625669866,-0.01795478849149651,-0.004128314891745093,-0.005832257720422822,0.0012200094279465029,0.008194988357581225,-0.006989096693643876,0.0064514306018348564,-0.004477215950222193,-0.011071180759045974,-8.24996090314422e-05,0.0019930290787091203,0.010612474363798452,-0.0051360547913237966,0.001117081066806363,-0.012579800458451796,-0.015312894284513675,-0.007079833669109586,0.005499067121838921,0.015804166406608842,-0.007072702680068654,-0.01675820247089832,0.0022090431868112548,0.003466735632269265,-0.004146303730962304,-0.002959089855468605,0.007035394249957707,0.0037639942462327726,0.009314425504956396,0.0016134796901021633,0.009372942514319294,0.0171436867352036,0.002852402512490093,0.004042915885814265,-0.0013581829655351064,0.006528535566423525,-0.003202410503749753,0.002576776282926985,-0.002623023983900636,-0.0011300392108134743,0.0048553446834413705,-0.0023234675768374164,0.012669990321111371,0.02334713857675181,0.0186756507502756,0.011911581354391779,0.020726982012321142,0.0,0.0,0.0,0.0,0.0,0.0,0.0,0.0,0.0,0.0,0.0,0.0,0.0,0.0,0.0,0.0,0.0,0.0,0.0,0.0,0.0,0.0,0.0,0.0,0.0,0.0,0.0,0.0,0.0,0.0,0.0,0.0,0.0,0.0,0.0,0.0,0.0,0.0,0.0,0.0,0.0,0.0,0.0,0.0,0.0,0.0,0.0,0.0,0.0,0.0,0.0,0.0,0.0,0.0,0.0,0.0,0.0,0.0,0.0,0.0,0.0,0.0,0.0,0.0,0.0,0.0,0.0,0.0,0.0,0.0,0.0,0.0,0.0,0.0,0.0,0.0,0.0,0.0,0.0,0.0,0.0,0.0,0.0,0.0,0.0,0.0,0.0,0.0,0.0,0.0,0.0,0.0,0.0,0.0,0.0,0.0,0.0,0.0,0.0,0.0,0.0,0.0,0.0,0.0,0.0,0.0,0.0,0.0,0.0,0.0,0.0,0.0,0.0,0.0,0.0,0.0,0.0,0.0,0.0,0.0,0.0,0.0,0.0,0.0,0.0,0.0,0.0,0.0,0.0,0.0,0.0,0.0,0.0,0.0,0.0,0.0,0.0,0.0,0.0,0.0,0.0,0.0,0.0,0.0,0.0,0.0,0.0,0.0,0.0,0.0,0.0,0.0,0.0,0.0,0.0,0.0,0.0,0.0,0.0,0.0,0
-0.00189129122984048,0.1569713046597342,0.3997475858886547,0.5753988582086726,0.7462596360988323,0.8883524843613251,0.936939174400063,0.7121982722797876,0.33878288799951684,0.03724154021419796,-0.07497033870649931,-0.009861111624449321,-0.05034660847294607,-0.02621909079622944,-0.0046159870877797065,-0.031094966856810537,-0.048121868722924885,-0.0053520000074208035,0.013305346039725056,-0.016121759361906605,-0.02170634187217431,0.02532556807492171,0.045863661294656966,0.03511920345111698,0.014675447543085968,0.037282636108700036,0.04780459745565521,0.01028476740792513,-0.029719533033306857,-0.005073766120053682,0.036280665674560585,0.024825573714552837,0.0013264030549962936,0.02093332007018905,0.05967983454339897,0.04085491828528343,-0.004366414439470676,0.003140131182877465,0.039407872404602966,0.05649536836550195,0.030435723577831333,0.03795567820666157,0.09344748996770592,0.10341688594508444,0.06067819866802916,0.053944213228633284,0.08801581288661703,0.10296180666871292,0.06042783169322957,0.02275292839909768,0.05227583508608921,0.08426904150667368,0.03961993058705151,0.02861592896161508,0.06324782127663066,0.0931719188279806,0.05126189698416478,0.03341921365448368,0.06122336896210219,0.0987143141457424,0.08355947767427649,0.0469272898511146,0.08232009345301748,0.1058269027728084,0.08867822805003568,0.04046363824865006,0.037901537694565536,0.0666061072305784,0.03786963671514585,0.0020375889647607976,0.0046602889653679464,0.03614614396777497,0.02696668189178762,-0.001302728908581908,-0.003112112500908053,0.05030631111820518,0.058257008578998674,0.011148216145084008,0.007274219648232137,0.027453011361201804,0.03332275325619532,0.005701263969816238,-0.0002721029984475991,0.05136218341511349,0.06949754534133347,0.042143798059144366,0.019644739630490418,0.035561637710049665,0.06591627994042733,0.03638331709121227,0.011690576339165395,0.05416822870327999,0.08469540651991334,0.04812571369610191,0.021173413926874544,0.04698789090213968,0.07521692703862745,0.04831564709006651,0.0046377693728412404,0.008908987278105625,0.049135795290333815,0.03660546763123086,-0.016701049026819216,0.004288401332066896,0.04442689019948877,0.02219525097203421,-0.04083451271732229,-0.05835870369993975,0.0031858211655211377,0.10784099610296537,0.22204621364837435,0.4033443482976751,0.6181731431507999,0.7922112624858407,0.8367494342680805,0.7373961268831397,0.5181152128283839,0.14053254734980555,-0.050132726293504036,-0.15219490212391049,0.06688793372837208,0.034120808611587734,0.0012395544010137074,0.037771790038031265,0.06699919955413099,0.02658812356894685,-0.016331823270042418,-0.011413478944251574,0.02935753981737598,0.029264896054475163,-0.006893769780821173,0.0095906348805191,0.0547465681800903,0.05425548124148464,0.003325304449739348,-0.004539859199041514,0.02826510701743312,0.03221647235497465,-0.014260150432495376,-0.015263071855485913,0.031609256883676794,0.044848236133113166,0.010074386947762769,0.013601924271039985,0.05303846575068025,0.06845217923642317,0.02148823555631997,-0.013527247386907448,0.01615447269764445,0.041012236889085125,0.0,0.0,0.0,0.0,0.0,0.0,0.0,0.0,0.0,0.0,0.0,0.0,0.0,0.0,0.0,0.0,0.0,0.0,0.0,0.0,0.0,0.0,0.0,0.0,0.0,0.0,0.0,0.0,0.0,0.0,0.0,0.0,0.0,0.0,0.0,0.0,0.0,0.0,0.0,0.0,0.0,0.0,0.0,0.0,0.0,0.0,0.0,0.0,0.0,0.0,0.0,0.0,0.0,0.0,0.0,0.0,0.0,0.0,0.0,0.0,0.0,0.0,0.0,0.0,0.0,0.0,0.0,0.0,0.0,0.0,0.0,0.0,0.0,0.0,0.0,0.0,0.0,0.0,0.0,0.0,0.0,0.0,0.0,0.0,0.0,0.0,0.0,0.0,0.0,0.0,0.0,0.0,0.0,0.0,0.0,0.0,0.0,0.0,0.0,0.0,0.0,0.0,0.0,0.0,0.0,0.0,0.0,0.0,0.0,0.0,0.0,0.0,0.0,0.0,0.0,0.0,0.0,0.0,0.0,0.0,0.0,0.0,0.0,0.0,0.0,0.0,0.0,0.0,0.0,0.0,0.0,0.0,0.0,0.0,0.0,0.0,0.0,0.0,0.0,0.0,0.0,0.0,0.0,0.0,0.0,0.0,0.0,0.0,0.0,0.0,0.32135401319758444,0.32746150549569963,0.3642118580489792,0.4003900973682703,0.4503314394875931,0.5355615212140273,0.6704113049739084,0.5671273209969991,0.25441934729259746,-0.1311193329134017,-0.443306811527111,-0.511973981706193,-0.22684647849077266,0.004544264511917279,0.13191202604625873,0.19847205754142,0.21147683724870467,0.2596919752593262,0.2760461986034637,0.2797760085339817,0.2781291548668405,0.2951343082262335,0.2876894698374763,0.28461539248981144,0.26678190570148674,0.26060942649625085,0.2589523986117717,0.2546639627385848,0.2286085935993208,0.25515098800290553,0.26720371948554256,0.2624098903404165,0.2695784319774842,0.2575801077276937,0.279195931471213,0.25534454592264605,0.26997144621733393,0.25118502509104035,0.2445685632402293,0.24056217788904696,0.22480981493645869,0.2285062280530037,0.2420879847600476,0.2464006130830871,0.2486606472606997,0.2560833895283976,0.2614980533713629,0.26492499458137714,0.2711782099423191,0.28027542313073023,0.27545068224382635,0.2519240052076191,0.2648508887242656,0.2686916517462416,0.2754446707599538,0.26593981365818065,0.2497752620045338,0.2509327131106504,0.26702039875885264,0.26927307941489176,0.2696812425426244,0.26584918379341604,0.2865470155477893,0.291016767946062,0.28165357473475483,0.2656460630589136,0.2645662972428038,0.2592279512802772,0.2328408505748816,0.21656300921405366,0.18640936953378526,0.1855230698081254,0.17553219206407852,0.13724368464275788,0.11140047425387352,0.09079531656506654,0.07541283296515378,0.07722456207228047,0.06504712909914613,0.0652361549240145,0.07297977005413414,0.07147840761006766,0.08229172367244376,0.0958118517944835,0.10482798831197176,0.10212885050143454,0.11646474511719025,0.14541830313393525,0.15780188230845302,0.16078670116492744,0.15914571497694888,0.16244602356696616,0.16347161134057706,0.16939049592035535,0.1897673518120003,0.2245761096040024,0.21385289501853605,0.22230137143870596,0.22831506030057966,0.2246712169804612,0.2257232234499936,0.2314384928776411,0.20342372195683445,0.2399404819359293,0.20909179979117315,0.24030419508527154,0.2280506662860683,0.25380600115264873,0.2480029699962838,0.260946786157352,0.26861972148473123,0.3285168672935658,0.3926431051883724,0.4753360044600701,0.5621614802898648,0.6506704423848515,0.5466130503501414,0.22355940732139354,-0.09318832130684668,-0.4492436771906671,-0.5018205220241032,-0.2077743194996412,-0.0010102343554472275,0.13770893881411447,0.20844070745748566,0.2543964268196949,0.2756318736009524,0.3057661918958862,0.31128786888665233,0.3258131416775508,0.3062375152157042,0.2957639380650885,0.299234239743187,0.3023089770183349,0.2786598392817569,0.27388123161526073,0.2688343612895361,0.2635588600985732,0.2580930156645555,0.23569147812709,0.23954446319026199,0.2265319354182046,0.2350467858529321,0.22436412291776653,0.21129726159047532,0.2222482919929403,0.20450159780172011,0.21562426654629807,0.20050107391260147,0.2238894295243386,0.0,0.0,0.0,0.0,0.0,0.0,0.0,0.0,0.0,0.0,0.0,0.0,0.0,0.0,0.0,0.0,0.0,0.0,0.0,0.0,0.0,0.0,0.0,0.0,0.0,0.0,0.0,0.0,0.0,0.0,0.0,0.0,0.0,0.0,0.0,0.0,0.0,0.0,0.0,0.0,0.0,0.0,0.0,0.0,0.0,0.0,0.0,0.0,0.0,0.0,0.0,0.0,0.0,0.0,0.0,0.0,0.0,0.0,0.0,0.0,0.0,0.0,0.0,0.0,0.0,0.0,0.0,0.0,0.0,0.0,0.0,0.0,0.0,0.0,0.0,0.0,0.0,0.0,0.0,0.0,0.0,0.0,0.0,0.0,0.0,0.0,0.0,0.0,0.0,0.0,0.0,0.0,0.0,0.0,0.0,0.0,0.0,0.0,0.0,0.0,0.0,0.0,0.0,0.0,0.0,0.0,0.0,0.0,0.0,0.0,0.0,0.0,0.0,0.0,0.0,0.0,0.0,0.0,0.0,0.0,0.0,0.0,0.0,0.0,0.0,0.0,0.0,0.0,0.0,0.0,0.0,0.0,0.0,0.0,0.0,0.0,0.0,0.0,0.0,0.0,0.0,0.0,0.0,0.0,0.0,0.0,0.0,0.0,0.0,0.0,0
0.20961297456681752,0.3621558865374701,0.5708912224107641,0.7580975705639342,0.8460506649181033,0.8001989702763139,0.5967808515307285,0.30054254138669306,0.017244983946581367,-0.11065233623563248,-0.08533136741963561,0.05865406307949701,0.019063801933999026,-0.016289079907280974,8.469873373173185e-05,0.020687619484201145,0.00881629389024107,-0.031215074638847193,-0.00873928403568467,0.02227248661045687,0.020802844853221182,-0.017465669951873302,-0.008338753655496611,0.020120601568915413,0.031214891455569476,-0.003118184590380913,-0.011635084087760176,0.007825597480505634,0.012091022526216369,-0.016105772844951245,-0.033584683064750244,0.013630057825930034,0.032717233673861264,0.004255646504140936,0.012447586043154754,0.05298345193102005,0.08269471233712754,0.038983135897210204,0.02332085897857912,0.0702562149097166,0.08480785630548922,0.032441214417372126,0.018944990909322872,0.048642900020258964,0.0632526052779715,0.04335039622854772,0.049388810689129564,0.08569069194417198,0.11340211496430293,0.10014520447215657,0.07614747416596405,0.1104948062507305,0.13842548594779186,0.12540081096329442,0.09085203858817163,0.11681575509547393,0.1493220501832717,0.12144747305992785,0.07852678188496579,0.08748238826543041,0.1094538338185118,0.09046844027003788,0.0391589380628391,0.05266947410558049,0.07702617471802903,0.047460772530137835,0.01578122273937513,0.01436580862294821,0.03673386531915439,0.03106930869898562,-0.013426433734607923,-0.00392843853776287,0.037971711614688895,0.04102980767433683,-0.007710245416593352,-0.006786966235014392,0.03947938175953016,0.03609848499276471,0.008974092328870949,-0.0030372714494625325,0.0367620475015026,0.048493383867903514,0.0019308881008796228,0.015807466910369775,0.03830875794126642,0.05000271082845762,0.007709996909666099,-0.010854702655573464,0.026687907304026648,0.046935675800561134,-0.004084246977013848,-0.011956512176004144,0.02331683542984728,0.047764235223237216,0.00957283607117374,-0.009223235734212928,0.012962968317343785,0.05022509943675444,0.01405078803391609,-0.015684153264654294,0.014990105091755747,0.04562710101851885,0.02225677568594824,-0.005467506583691521,0.020742811521940557,0.04907667723538811,0.012611151595716416,-0.0044591249471879185,0.015136816877654532,0.04549384858831963,0.017530244649025355,-0.00182990563046653,0.01979618231256349,0.05002668482720946,0.026256114322812208,-0.012656441705743702,0.002371537914696211,0.04327660363725803,0.023706990208183683,-0.008842067763005048,-0.00039897599627150576,0.042561569867175415,0.02937069541778805,-0.0011111224525099264,0.011564706979614987,0.054446793665514116,0.041183603404388654,0.004158763528348889,0.012455738615795523,0.05312258184874186,0.03548954566491549,0.004892659203921637,0.004508948089148365,0.04081537031638016,0.04688877500804585,0.007617632853450909,0.0,0.0,0.0,0.0,0.0,0.0,0.0,0.0,0.0,0.0,0.0,0.0,0.0,0.0,0.0,0.0,0.0,0.0,0.0,0.0,0.0,0.0,0.0,0.0,0.0,0.0,0.0,0.0,0.0,0.0,0.0,0.0,0.0,0.0,0.0,0.0,0.0,0.0,0.0,0.0,0.0,0.0,0.0,0.0,0.0,0.0,0.0,0.0,0.0,0.0,0.0,0.0,0.0,0.0,0.0,0.0,0.0,0.0,0.0,0.0,0.0,0.0,0.0,0.0,0.0,0.0,0.0,0.0,0.0,0.0,0.0,0.0,0.0,0.0,0.0,0.0,0.0,0.0,0.0,0.0,0.0,0.0,0.0,0.0,0.0,0.0,0.0,0.0,0.0,0.0,0.0,0.0,0.0,0.0,0.0,0.0,0.0,0.0,0.0,0.0,0.0,0.0,0.0,0.0,0.0,0.0,0.0,0.0,0.0,0.0,0.0,0.0,0.0,0.0,0.0,0.0,0.0,0.0,0.0,0.0,0.0,0.0,0.0,0.0,0.0,0.0,0.0,0.0,0.0,0.0,0.0,0.0,0.0,0.0,0.0,0.0,0.0,0.0,0.0,0.0,0.0,0.0,0.0,0.0,0.0,0.0,0.0,0.0,0.0,0.0,0.0,0.0,0.0,0.0,0.0,0.0,0.0,0.0,0.0,0.0,0.0,0.0,0.0,0.0,0.27430225552652066,0.3050466399566127,0.3678562143273291,0.479956841363017,0.5894901103153143,0.6899305580899138,0.6905555574708981,0.4531448580828086,0.07478679823766511,-0.25460302853178984,-0.494068401352524,-0.3111873928178221,-0.08806256769259428,0.06524515669014125,0.15310101057119702,0.21656994112990946,0.24058665225985665,0.2511024603061956,0.2589556962014013,0.2663481310916922,0.2517331545914302,0.2669629109029369,0.2516293300013493,0.2575819626086617,0.2373631021497381,0.2363432750846433,0.239444691140248,0.2467001608064681,0.2300765584594109,0.21119252454961904,0.20303024487088844,0.2272061535283465,0.21034732246239451,0.1999739474180323,0.20906395530782815,0.2182118821472834,0.22744065324852075,0.21734266824785395,0.2267974934275251,0.22344234809630845,0.222407491082262,0.2345044118647258,0.24247874899523175,0.2506632291881393,0.24180110607917565,0.2266991188782752,0.24206871061170585,0.24474362627605975,0.24120940009961606,0.2422679947294994,0.2479260364233908,0.24955363582504286,0.2622667507014014,0.242891787202039,0.2367657089508103,0.2395712655373946,0.2383547184489715,0.226637609521859,0.23248150591460176,0.21918205954303635,0.2147985419701303,0.21500673782122304,0.19173427097556875,0.16008421164850614,0.1459528017264623,0.10831187455165713,0.08600909823638292,0.08119155616925176,0.06578233673454292,0.039768861249107744,0.029044134939978032,0.01848326888859441,0.014549489640609625,0.006435322777422521,-0.01234912673003892,-0.01159374292315303,0.015165676570365732,-0.01195860721116663,-0.008783627852677217,0.0009334137041578797,0.0128655855787067,-0.011855265872550107,-0.006314881265114481,-0.009380352320175787,-0.014582823406940929,-0.006817243487191645,-0.003359567181816223,-0.0020556668571735433,0.018678338895657908,0.0242970489932454,0.0126373599877919,-0.011987474848278534,-0.008564222265034236,-0.011637422599536769,0.004696327329950538,-0.002740897931326412,0.0070671693513000965,-0.002580681167791217,0.0028555650900580587,-0.00037213598097708965,0.013641156810692513,0.008194464023402523,-0.0037602624150558203,-0.0006358072752566895,0.03267892369168916,0.0249420423968149,0.0042174965070145565,-0.0014308910210298724,-0.009274665756381173,0.0022736318993411197,-0.0013271351429413405,0.0015113624402392405,-0.006481289182607008,0.009236314243946156,0.005488454232204865,0.010340626373030468,0.012999429582216906,0.01994201962033565,-0.001213381981986,-0.0008132628016490115,0.0060312228010735575,0.012844301999829492,-0.00627926280424556,-0.0016858610344221386,0.017990410566801215,0.009574398317905427,0.005449770982422332,0.01857071483549409,0.02735017180758898,0.04474220807142,0.021094797062669386,-0.004732442685985146,-0.00035647632131714677,-0.00031742753119415687,0.004021135231540485,0.006183891190238124,0.0,0.0,0.0,0.0,0.0,0.0,0.0,0.0,0.0,0.0,0.0,0.0,0.0,0.0,0.0,0.0,0.0,0.0,0.0,0.0,0.0,0.0,0.0,0.0,0.0,0.0,0.0,0.0,0.0,0.0,0.0,0.0,0.0,0.0,0.0,0.0,0.0,0.0,0.0,0.0,0.0,0.0,0.0,0.0,0.0,0.0,0.0,0.0,0.0,0.0,0.0,0.0,0.0,0.0,0.0,0.0,0.0,0.0,0.0,0.0,0.0,0.0,0.0,0.0,0.0,0.0,0.0,0.0,0.0,0.0,0.0,0.0,0.0,0.0,0.0,0.0,0.0,0.0,0.0,0.0,0.0,0.0,0.0,0.0,0.0,0.0,0.0,0.0,0.0,0.0,0.0,0.0,0.0,0.0,0.0,0.0,0.0,0.0,0.0,0.0,0.0,0.0,0.0,0.0,0.0,0.0,0.0,0.0,0.0,0.0,0.0,0.0,0.0,0.0,0.0,0.0,0.0,0.0,0.0,0.0,0.0,0.0,0.0,0.0,0.0,0.0,0.0,0.0,0.0,0.0,0.0,0.0,0.0,0.0,0.0,0.0,0.0,0.0,0.0,0.0,0.0,0.0,0.0,0.0,0.0,0.0,0.0,0.0,0.0,0.0,0.0,0.0,0.0,0.0,0.0,0.0,0.0,0.0,0.0,0.0,0.0,0.0,0.0,0.0,0
0.13975655908715873,0.27845563156242154,0.4986158860023287,0.7379049054791601,0.8956281921268494,0.8974597752078075,0.7625707012495936,0.5029351067573433,0.20005006837697248,-0.045410057991679145,-0.15195171062857182,-0.12198861229953603,0.11640165111875808,0.06695168750761,0.03894486777730745,0.058762267620192224,0.07366811804525196,0.038118778973683085,0.024046479804022813,0.0434464033113565,0.0723514984206363,0.034050063518787935,0.01246080939445712,0.03875784327996211,0.0745884571092878,0.04084268692710423,-0.00013882393445069778,0.03556163181396727,0.07602594897312813,0.06372068998273643,0.027421109835313703,0.058236475190670614,0.07945271872030919,0.05990749249581879,0.018785010390022724,0.01842372307956249,0.049237760080559384,0.03930682851978032,0.0006219877765711716,-0.002081465997854938,0.028802481484672605,0.05012298015149588,-0.010040654976638056,-0.02941394595811848,0.003994723916503442,0.03744796116962136,0.0038235069029156094,-0.003370310862526927,0.03505311530019541,0.056766588797319315,0.02341748018132736,-0.007448154180950663,0.038497944678189684,0.07495396914188775,0.04918255848011156,0.033114637734461404,0.06032129817482872,0.10443660946835924,0.09833727757560903,0.08518330136847152,0.11532661075599875,0.17678437945999684,0.18325150309256746,0.156308334197117,0.148701474194906,0.1868045263125189,0.1771166382100555,0.1196375189310925,0.13903465247749394,0.18256183081604085,0.17109993408724647,0.10704305382266747,0.11745308659566818,0.14238840295212635,0.1386891058607626,0.07997690603655859,0.06693895553162711,0.0923756656603482,0.0915477312539498,0.0524598185713414,0.04942520881533805,0.08483269365419374,0.0819541676711033,0.043177751244808174,0.026033062530403474,0.04249749321176503,0.05899629422499258,0.0035949161598034696,-0.013433443045703396,0.010298055718787428,0.038817939881764615,0.019372365693161968,-0.016881106245406452,0.006766998388308028,0.05434646828608078,0.029950202275138338,-0.01608324383751563,-0.002248298860519605,0.04028084697008588,0.010803464012366084,-0.028353130379454212,-0.005271775903741039,0.022503772264682982,0.023802476422711414,-0.03014933941044133,-0.02187954151582432,0.00545609385354499,-0.005680976446000532,-0.02891772439721776,-0.02589321108418976,0.027371404145724542,0.03738118398228759,0.0017450754231677836,0.00917585972503962,0.04289744280718053,0.06935136502129333,0.02141431285531487,-0.0002141770768835812,0.0380360460139012,0.059451338169310274,0.032869875833217384,0.011041136634185131,0.034727062645485036,0.06557289077569094,0.05083883885096915,0.028888817997958626,0.04288143363146865,0.0928206103809376,0.056438872168339614,0.012856115071907705,0.03639700449314927,0.08390990373506511,0.07628088049789901,0.0446793980267608,0.05623665178009173,0.09417201537796337,0.08416519946881387,0.04779441348829524,0.030612188457884795,0.0901581876329036,0.07539166222487259,0.034261774672503166,0.00992236197383094,0.0479245640592003,0.04277859405266279,-0.022299027620806558,-0.0370258596465425,0.03216348197991156,0.14691367148421058,0.2664717480334172,0.0,0.0,0.0,0.0,0.0,0.0,0.0,0.0,0.0,0.0,0.0,0.0,0.0,0.0,0.0,0.0,0.0,0.0,0.0,0.0,0.0,0.0,0.0,0.0,0.0,0.0,0.0,0.0,0.0,0.0,0.0,0.0,0.0,0.0,0.0,0.0,0.0,0.0,0.0,0.0,0.0,0.0,0.0,0.0,0.0,0.0,0.0,0.0,0.0,0.0,0.0,0.0,0.0,0.0,0.0,0.0,0.0,0.0,0.0,0.0,0.0,0.0,0.0,0.0,0.0,0.0,0.0,0.0,0.0,0.0,0.0,0.0,0.0,0.0,0.0,0.0,0.0,0.0,0.0,0.0,0.0,0.0,0.0,0.0,0.0,0.0,0.0,0.0,0.0,0.0,0.0,0.0,0.0,0.0,0.0,0.0,0.0,0.0,0.0,0.0,0.0,0.0,0.0,0.0,0.0,0.0,0.0,0.0,0.0,0.0,0.0,0.0,0.0,0.0,0.0,0.0,0.0,0.0,0.0,0.0,0.0,0.0,0.0,0.0,0.0,0.0,0.0,0.0,0.0,0.0,0.0,0.0,0.0,0.0,0.0,0.0,0.0,0.0,0.0,0.0,0.0,0.0,0.0,0.0,0.0,0.0,0.0,0.0,0.0,0.0,0.3123066625211343,0.3410384599362193,0.41964932843135017,0.5001486946585371,0.5465312582290591,0.6186881876580129,0.7045836915687357,0.6219582140196848,0.3347946048629784,-0.008321879269300166,-0.2564101814769106,-0.4143242799579289,-0.3981872470194471,-0.1864171244327,0.01964076938959356,0.18168707406193027,0.30697434157742304,0.3356249367407109,0.3731854121263013,0.3861471361954461,0.3913465705471641,0.3840409778741524,0.36907556110098494,0.35608855142971,0.3523188604433883,0.3410288768705002,0.32465902177468225,0.32962275348700903,0.31999757677270724,0.3126037815892462,0.2859004700472947,0.2854744599917172,0.277794489806013,0.2748798810838445,0.2719662467581493,0.2546979283977299,0.24707749559907136,0.229951708127736,0.21773072973835955,0.2104387289799433,0.2200861569537512,0.21073292774375668,0.1847974428620648,0.16867179256796455,0.1743622976864371,0.18270727054813107,0.16015930622511315,0.1858513755886639,0.16629750334840915,0.17103903335749127,0.1809099310577917,0.18873067790193648,0.1969107477576254,0.18628140266852827,0.16644261101876334,0.16137825523252933,0.16869916886796466,0.18361790435074946,0.20374364485190166,0.18353011911163666,0.19970122345224134,0.20670875024511115,0.19017065849089385,0.19324325543486048,0.19914504143943276,0.2126708188213958,0.2194346002428693,0.2170367062177902,0.21266625705182332,0.22789613331419625,0.22436129621329415,0.20445262957693447,0.21131695752655227,0.213778380443784,0.19504478757257224,0.17668258712387386,0.15148752119052028,0.1338317166230482,0.13089412011084128,0.08032625619041431,0.049242603951524126,0.05920523027018351,0.03827446040327676,0.04157645836419727,0.013953381699651829,0.027313314856715856,0.02170318925053133,0.001901604241587256,0.0038542158097959016,0.005967288638673786,-0.018147880341706262,-0.02055832256106408,-0.02525357263595529,-0.027451521248104897,-0.019970185748655233,-0.021997192247235026,-0.026346053032821826,-0.018635767937582898,0.010722217598988105,-0.0030034729412990115,0.019304184783214086,0.032093839902636916,0.025776158643889255,-0.006840878994126482,-0.013012565863744276,6.959903664950393e-05,0.022817878661243383,0.03605463865150159,0.03019202752422412,0.05557886955257452,0.04269012599046505,0.044271666497756115,0.06032471397766812,0.07167047604563087,0.07830965262296236,0.07784511103741798,0.08705912099794827,0.0963613463349434,0.12972565495974034,0.1296113087767469,0.14876073615648075,0.14881169624798915,0.1801077513203826,0.185105378731088,0.16859448556951465,0.16413374429236552,0.19808856166036887,0.1913346571535111,0.21339016276227168,0.2306808614330061,0.2527860055025368,0.26291147725037445,0.2322745238200902,0.2207976247216131,0.2164778708567851,0.2576582082041521,0.2604093140526099,0.26786671218267344,0.2824075622281887,0.292022839042347,0.3014844251288044,0.3059728459122923,0.31984691332487475,0.3143093730931053,0.33728054742680363,0.3383827431004505,0.3055961683447055,0.3251957833649863,0.32042677198547365,0.3439963010752743,0.0,0.0,0.0,0.0,0.0,0.0,0.0,0.0,0.0,0.0,0.0,0.0,0.0,0.0,0.0,0.0,0.0,0.0,0.0,0.0,0.0,0.0,0.0,0.0,0.0,0.0,0.0,0.0,0.0,0.0,0.0,0.0,0.0,0.0,0.0,0.0,0.0,0.0,0.0,0.0,0.0,0.0,0.0,0.0,0.0,0.0,0.0,0.0,0.0,0.0,0.0,0.0,0.0,0.0,0.0,0.0,0.0,0.0,0.0,0.0,0.0,0.0,0.0,0.0,0.0,0.0,0.0,0.0,0.0,0.0,0.0,0.0,0.0,0.0,0.0,0.0,0.0,0.0,0.0,0.0,0.0,0.0,0.0,0.0,0.0,0.0,0.0,0.0,0.0,0.0,0.0,0.0,0.0,0.0,0.0,0.0,0.0,0.0,0.0,0.0,0.0,0.0,0.0,0.0,0.0,0.0,0.0,0.0,0.0,0.0,0.0,0.0,0.0,0.0,0.0,0.0,0.0,0.0,0.0,0.0,0.0,0.0,0.0,0.0,0.0,0.0,0.0,0.0,0.0,0.0,0.0,0.0,0.0,0.0,0.0,0.0,0.0,0.0,0.0,0.0,0.0,0.0,0.0,0.0,0.0,0.0,0.0,0.0,0.0,0.0,0
0.09824006257223812,0.22992128166217565,0.3927624432445619,0.5771706534950868,0.7951283229478636,0.917163996053985,0.8377769840347508,0.5953104667624168,0.27845039428914675,-0.014530362920501012,-0.15659063575975202,0.039248981292202716,-1.6564588211378273e-05,-0.029853806226320424,-0.01910448233903653,0.020237968127038482,-0.017319574254983552,-0.04547239080724935,-0.011478756868903494,0.022328608521287308,0.015195344977099231,-0.032875957430635434,-0.01879139223697173,0.016697615768055132,0.01845658152957852,-0.03268694987761297,-0.002467174225972579,0.034804558989426866,0.03598429979043398,-0.008507436447345985,0.011623397789306784,0.0388484613373158,0.04201157156962049,0.004341197063947062,0.019349411434548203,0.048687183324666615,0.05400538463048732,0.00414706653582584,0.023790835874422264,0.06979208186192483,0.08222375507152628,0.0323256222513795,0.03758296774298057,0.08601730523587142,0.10091815599283403,0.060716518737316275,0.06611407390228191,0.11711828020844535,0.1250297188824073,0.08745745824192913,0.08831901413873948,0.13481228941944304,0.14782567265301186,0.12736352830598585,0.1141865438166402,0.1562471925291551,0.1840211390370604,0.14236811214501685,0.10561052957583247,0.1336852517646611,0.14987257934661902,0.11820920663066214,0.06266793459240665,0.05996540646744523,0.09571393098677128,0.0692164443717839,0.01643143602161673,0.0332539052827384,0.06933284063231869,0.035957476419084415,0.007444948727953709,0.02694504872109297,0.04410603492981624,0.04214067053674559,0.0018640239531462126,0.004784871016585953,0.041307957079586594,0.05149104450548704,0.006558854253210352,7.036126753057883e-06,0.029432237488549288,0.034891723877478006,-0.012390221193399907,-0.014123353886982512,0.02249488009282561,0.030331520731182362,-0.009797019637509344,-0.016380562206794718,0.02016777531117809,0.044704626845749454,0.016471370934476582,-0.0045969192785622,0.015062530340851876,0.03708870339880093,0.011133136982804076,-0.01725384761584567,0.016657809157917924,0.04334124846847756,0.017244270602992624,-0.016081519692693468,0.02008256124127915,0.05621079609702277,0.015584944430296456,-0.0011004214096329461,0.010950223354488182,0.04694261107521815,0.032555666359712694,-0.005838002768272586,-0.003506363204397473,0.044346316736384485,0.03942470947278638,0.003306977751051404,-0.008864273429573044,0.019693956536355216,0.04103370584833279,0.002411965753709057,-0.007463497438941827,0.030588317524839637,0.042247625525660894,-0.003650975156177319,-0.004014539972294586,0.024376510409215783,0.05994718821919354,0.025980476258733915,0.0015948832698387994,0.029946674474394676,0.05589566323139829,0.02909646164883837,-0.004897627996321775,0.01864634502003105,0.04938303311992077,0.04176194397601059,-0.0018181768305565074,0.009747754395386457,0.033306436569598086,0.01611462290433581,-0.0034670787553994285,0.027306704309372442,0.053295333336910916,0.021755507273136257,-0.009772526318313504,-0.0029284225807947933,0.04228950387341982,0.03477919546727661,-0.001482853247048493,0.02221148289856461,0.0555169639547225,0.052883187396982036,0.004721586733814199,0.0069321976697728676,0.0,0.0,0.0,0.0,0.0,0.0,0.0,0.0,0.0,0.0,0.0,0.0,0.0,0.0,0.0,0.0,0.0,0.0,0.0,0.0,0.0,0.0,0.0,0.0,0.0,0.0,0.0,0.0,0.0,0.0,0.0,0.0,0.0,0.0,0.0,0.0,0.0,0.0,0.0,0.0,0.0,0.0,0.0,0.0,0.0,0.0,0.0,0.0,0.0,0.0,0.0,0.0,0.0,0.0,0.0,0.0,0.0,0.0,0.0,0.0,0.0,0.0,0.0,0.0,0.0,0.0,0.0,0.0,0.0,0.0,0.0,0.0,0.0,0.0,0.0,0.0,0.0,0.0,0.0,0.0,0.0,0.0,0.0,0.0,0.0,0.0,0.0,0.0,0.0,0.0,0.0,0.0,0.0,0.0,0.0,0.0,0.0,0.0,0.0,0.0,0.0,0.0,0.0,0.0,0.0,0.0,0.0,0.0,0.0,0.0,0.0,0.0,0.0,0.0,0.0,0.0,0.0,0.0,0.0,0.0,0.0,0.0,0.0,0.0,0.0,0.0,0.0,0.0,0.0,0.0,0.0,0.0,0.0,0.0,0.0,0.0,0.0,0.0,0.0,0.0,0.0,0.0,0.0,0.0,0.0,0.0,0.0,0.0,0.0,0.0,0.18203506453162746,0.18601972769963784,0.18967360162665184,0.25049687039114005,0.3324872742974563,0.4284109920597893,0.5502123338854149,0.6019471270734462,0.3797821070081242,0.017924867344755357,-0.4213431244073577,-0.38665574516206463,-0.15613293168546366,-0.007857888447861758,0.07738781861554582,0.11882337006896662,0.1308726110551503,0.14953606077063664,0.1556716765017175,0.1349316163367454,0.13050664179406488,0.15681714883975129,0.1587561279123849,0.15553748684145233,0.1543869684698893,0.1481446925061036,0.14882980065311865,0.15167837420221944,0.14473332757214089,0.13281913647802268,0.13034944993309566,0.13495493316663226,0.15625297086656656,0.136730994193063,0.15792915903000354,0.16712838010009187,0.1835330097157046,0.14962738882948512,0.15893581792351125,0.1683258175955272,0.16343380465837476,0.17065241639590648,0.18041135930521754,0.19752433206841466,0.21961170858726126,0.2203181327300376,0.21404421240657964,0.24395914483024705,0.25493461310486404,0.2469829880857231,0.25128253109042065,0.25825320642151395,0.2631086704512695,0.2562663398035569,0.2688993776589924,0.2674478613545715,0.2782873797599585,0.26066290575240714,0.2769094131431102,0.2766792830931646,0.2839452136932523,0.25794671512571826,0.23943600204703636,0.2260094630388237,0.2176597637438697,0.18560874886346115,0.1538216081060761,0.1390701804129015,0.10777857655225606,0.09589696493584224,0.07704064481174071,0.05838907531975925,0.05191627887884611,0.043223769309567915,0.020310275092279163,0.021521267653315558,-0.0011069558149245176,-0.014024081526183677,-0.002859484462860289,-0.008383114866800014,-0.004235372575720879,-0.0024154488903449013,-0.024512029715728474,-0.010599447289086131,0.0009538509067174026,0.00534506371286169,-0.0070235632810927975,-0.00978769759317008,-0.0005570819147051769,-0.005710219999949029,-0.010868500580272026,-0.0016527699161444972,-0.004439903860580316,0.0023428635701940263,-0.005283290431644303,-0.0009502413234083213,-0.0014438989911009304,-0.004370289118341099,0.002254596746385441,0.0040429655790541795,-0.00380308995261406,0.0002907192572786107,-0.017242863939016646,-0.0036620254602831703,0.002672665681843568,0.008952998950610037,-0.0016039919658884332,-0.00502425604445268,0.010679038911441882,0.01913361454372776,0.005954510305054203,-0.009678690643450432,0.003400936292702014,0.009231956430507192,0.015007454423560228,0.011138149077398091,-0.007170367357349805,-0.0039554962207007825,0.004001609026216758,-0.007272252029131358,-0.009005866501314484,0.013187823911947191,0.004169980075965215,0.004700666564222463,0.005192968035473641,0.020034688056963398,0.01566411940745073,-0.0031209574488293033,-0.005150623715233739,0.01677059348401531,0.02668411999266781,0.02459341141924035,0.0009118929869204213,0.0035922487402130507,0.0038679824463254643,-0.012642574641685002,-0.007576677304663281,0.002287713173944396,-0.002224118946146495,0.0028676354974944964,0.0007859348584991876,-0.0012715344358554099,-0.0009020383703310726,0.013887174830810934,-0.0024504391514200163,-0.006754947148144597,0.01536412590704871,0.015963566529811398,0.0022419919623577565,0.007770156282074422,0.0,0.0,0.0,0.0,0.0,0.0,0.0,0.0,0.0,0.0,0.0,0.0,0.0,0.0,0.0,0.0,0.0,0.0,0.0,0.0,0.0,0.0,0.0,0.0,0.0,0.0,0.0,0.0,0.0,0.0,0.0,0.0,0.0,0.0,0.0,0.0,0.0,0.0,0.0,0.0,0.0,0.0,0.0,0.0,0.0,0.0,0.0,0.0,0.0,0.0,0.0,0.0,0.0,0.0,0.0,0.0,0.0,0.0,0.0,0.0,0.0,0.0,0.0,0.0,0.0,0.0,0.0,0.0,0.0,0.0,0.0,0.0,0.0,0.0,0.0,0.0,0.0,0.0,0.0,0.0,0.0,0.0,0.0,0.0,0.0,0.0,0.0,0.0,0.0,0.0,0.0,0.0,0.0,0.0,0.0,0.0,0.0,0.0,0.0,0.0,0.0,0.0,0.0,0.0,0.0,0.0,0.0,0.0,0.0,0.0,0.0,0.0,0.0,0.0,0.0,0.0,0.0,0.0,0.0,0.0,0.0,0.0,0.0,0.0,0.0,0.0,0.0,0.0,0.0,0.0,0.0,0.0,0.0,0.0,0.0,0.0,0.0,0.0,0.0,0.0,0.0,0.0,0.0,0.0,0.0,0.0,0.0,0.0,0.0,0.0,0
-0.013109025201955823,0.0642120211903458,0.2181670617313366,0.3240879001219491,0.4754754051753938,0.6771222783416362,0.8523047194934187,0.8619612126213526,0.6629249498397429,0.4158101239573246,0.19491854047552104,-0.009361672596243207,-0.1467065058116893,-0.17398348308918848,0.07422499507123617,0.08247037210468944,0.018583879058248504,0.014434221009396016,0.05564408140410041,0.07748911245239712,0.044014379038101535,0.0151635282467578,0.03889261588610311,0.06006622957539578,0.03313865943554345,0.001270442180050128,0.03639163972330952,0.056993956191839175,0.01992850161287406,-0.024452403550022945,0.012563049383119132,0.03268600125839147,0.00955175734210634,-0.030460107223420355,-0.008225631748649554,0.03311085186584823,0.01684115377796665,-0.02345926631427541,-0.01585544505971178,0.027678211081744068,0.025642048923173514,-0.009962227707288749,-0.002401238679831468,0.041147744105609535,0.031993552666575734,0.013305896546913014,0.0138694798756102,0.06007146601099101,0.0680151338695953,0.037715060452012235,0.024327390230353938,0.05663586244842515,0.08430744475406439,0.06420124433934465,0.0442799680240414,0.09168579555116647,0.1201223338282262,0.09843463888094113,0.08177623880592456,0.11810774680304854,0.14990050057897114,0.1483949381958035,0.14237013000152834,0.18457914678126028,0.2630425429575422,0.25070118648043416,0.25784457996432625,0.2820796831821094,0.33299953788968617,0.30991196035015844,0.2655614532646043,0.2478960212919353,0.2641052791836983,0.23506852952877166,0.1823576725192932,0.1635055466224873,0.17610722248765878,0.1530251487244579,0.10384006912425528,0.08128649869395856,0.11891863931067165,0.11603172891279767,0.055832009286922564,0.048591276843648216,0.07991238829205179,0.07306362711408701,0.018442155982869902,0.009536164624218498,0.04393478090587991,0.06408517746758585,0.014831781516345663,-0.005542948731053225,0.03651156627134767,0.06186514331406946,0.034541952971082916,0.009669877655568366,0.04477410131212359,0.07750604747684431,0.0646967097447777,0.01831860172792589,0.051037831684397565,0.08611995122589307,0.06601005070441253,0.033846708001855345,0.0447555421557785,0.09872009542300653,0.07824744846472198,0.04085980794793601,0.07045120595542233,0.10946449004116084,0.12431689791492405,0.11978470782295055,0.17496527790363986,0.244286706830374,0.29656106389723896,0.2910093000000574,0.33789176042381536,0.4084138294184269,0.4522019336043636,0.3565461272622109,0.1813523490280098,0.03926918811317475,-0.0697369623681916,-0.1433024314067452,-0.16946702601698765,-0.12187209403534364,-0.08442669902515015,-0.08109147067125429,-0.04711247119835135,0.04391235299966089,0.12249056156635747,0.12152696882473085,0.06502979780989178,0.08009805629294471,0.17875166331925554,0.19080209511405613,0.14984524464475465,0.16619522658611638,0.2063169519157472,0.1959174385350209,0.13022942575483812,0.1291533338403845,0.16874047743878048,0.16989961788328498,0.13745027124614914,0.14094290861345582,0.18999045779037496,0.1887162752555132,0.13474426294129654,0.13598119429315975,0.0,0.0,0.0,0.0,0.0,0.0,0.0,0.0,0.0,0.0,0.0,0.0,0.0,0.0,0.0,0.0,0.0,0.0,0.0,0.0,0.0,0.0,0.0,0.0,0.0,0.0,0.0,0.0,0.0,0.0,0.0,0.0,0.0,0.0,0.0,0.0,0.0,0.0,0.0,0.0,0.0,0.0,0.0,0.0,0.0,0.0,0.0,0.0,0.0,0.0,0.0,0.0,0.0,0.0,0.0,0.0,0.0,0.0,0.0,0.0,0.0,0.0,0.0,0.0,0.0,0.0,0.0,0.0,0.0,0.0,0.0,0.0,0.0,0.0,0.0,0.0,0.0,0.0,0.0,0.0,0.0,0.0,0.0,0.0,0.0,0.0,0.0,0.0,0.0,0.0,0.0,0.0,0.0,0.0,0.0,0.0,0.0,0.0,0.0,0.0,0.0,0.0,0.0,0.0,0.0,0.0,0.0,0.0,0.0,0.0,0.0,0.0,0.0,0.0,0.0,0.0,0.0,0.0,0.0,0.0,0.0,0.0,0.0,0.0,0.0,0.0,0.0,0.0,0.0,0.0,0.0,0.0,0.0,0.0,0.0,0.0,0.0,0.0,0.0,0.0,0.0,0.0,0.0,0.0,0.0,0.0,0.0,0.0,0.0,0.0,0.27292823776590736,0.30262980412506485,0.327157738466782,0.3728479014147045,0.4708294662861501,0.5419459270645447,0.5717702280979042,0.6082069342753478,0.6799779577053962,0.5880421165495826,0.3179603456506864,0.013523939558934562,-0.2078496136301799,-0.3845787191177094,-0.4136110561616575,-0.20144766600644035,-0.00697901029993271,0.14827353671530627,0.2595715834909721,0.3101886259051654,0.3361412952840791,0.33268760991067803,0.33344349522036665,0.31208635718094313,0.31661363601937953,0.3206995100542119,0.3243887911888004,0.3205322651054086,0.2947866728187969,0.27835916326486354,0.27608319479313703,0.27121356578668904,0.2757733851068045,0.2418475495173827,0.238995814733328,0.2432752318256889,0.21156186295698196,0.2038219462844022,0.19131411523208602,0.20523284014399493,0.21683477876395754,0.2021705111539661,0.1972263892316757,0.17325594955026452,0.16864102128406788,0.18340297946875705,0.1863951907995273,0.18243221857441053,0.1619428486683911,0.16090696537782356,0.1769440554259028,0.20048037827745,0.1955690920240042,0.19818657959068126,0.18916633850994452,0.1757130920343646,0.19380030847900667,0.1882965564285492,0.19757093087223715,0.2120421004928877,0.20055047794802325,0.2110520656436789,0.19800036782739114,0.20215690616893026,0.2235251502361286,0.21895302247100687,0.2387888230959433,0.2326858394385481,0.2318102890825135,0.2481474322528763,0.2313470398524889,0.26771367379443184,0.2853174393385565,0.3033311243412719,0.26900186283632177,0.2686287781904004,0.22308392611931074,0.2258561645600889,0.2098024618709279,0.21087004950003554,0.20267077961257135,0.18039271819408784,0.153607763323333,0.13188691111546402,0.10801806995854536,0.10595565394145556,0.08492173255080207,0.06886965000684392,0.07216242895644827,0.05162336590985768,0.04319204652418493,0.003691148380698236,0.007419370918364575,-0.007980636626980458,-0.023352137916158526,-0.033922483896605383,-0.037314281303837016,-0.011967120307940927,-0.010638747698931288,-0.006969123431378072,-0.024944155843647533,-0.04779202910728112,-0.03236634104601046,-0.031415118888092564,-0.028156562065099245,-0.039370524948859766,-0.029089753731797164,-0.03806243012429704,-0.03990469355703684,-0.01302401601219675,-0.019735676967448552,-0.019262326248105185,-0.016376749372630832,0.010522314714508927,0.018305878348117543,0.04056407696925765,0.08211726359541281,0.09743862935885404,0.09374538811154423,0.06626689530638824,0.06057899673417798,0.06232035082167196,0.10268132368310827,0.13133784563077355,0.22023651987063186,0.3454243232721282,0.4709597603161968,0.5824768765327958,0.6680048368942644,0.717967368229741,0.7371697027912736,0.7376059057176151,0.8583324910816654,1.0681816138028544,1.0434892797139186,0.8178098156756851,0.5325786719557836,0.2501105598137513,0.09265438364532183,0.062584085234316,0.10233628706307972,0.123180133558163,0.12748827862960685,0.11763276028678445,0.10077992758004048,0.10087786108419387,0.11550192082142062,0.09427747760094594,0.07553587164613475,0.08562060058705233,0.0,0.0,0.0,0.0,0.0,0.0,0.0,0.0,0.0,0.0,0.0,0.0,0.0,0.0,0.0,0.0,0.0,0.0,0.0,0.0,0.0,0.0,0.0,0.0,0.0,0.0,0.0,0.0,0.0,0.0,0.0,0.0,0.0,0.0,0.0,0.0,0.0,0.0,0.0,0.0,0.0,0.0,0.0,0.0,0.0,0.0,0.0,0.0,0.0,0.0,0.0,0.0,0.0,0.0,0.0,0.0,0.0,0.0,0.0,0.0,0.0,0.0,0.0,0.0,0.0,0.0,0.0,0.0,0.0,0.0,0.0,0.0,0.0,0.0,0.0,0.0,0.0,0.0,0.0,0.0,0.0,0.0,0.0,0.0,0.0,0.0,0.0,0.0,0.0,0.0,0.0,0.0,0.0,0.0,0.0,0.0,0.0,0.0,0.0,0.0,0.0,0.0,0.0,0.0,0.0,0.0,0.0,0.0,0.0,0.0,0.0,0.0,0.0,0.0,0.0,0.0,0.0,0.0,0.0,0.0,0.0,0.0,0.0,0.0,0.0,0.0,0.0,0.0,0.0,0.0,0.0,0.0,0.0,0.0,0.0,0.0,0.0,0.0,0.0,0.0,0.0,0.0,0.0,0.0,0.0,0.0,0.0,0.0,0.0,0.0,0
-0.05307695411425035,0.04470821201236005,0.17257934527851507,0.3111184035910448,0.4862418293983151,0.6979585967348095,0.8037927279056117,0.6936471464501519,0.4473974509712245,0.2312688145754388,0.043095740040032346,-0.1128119479963644,0.013961531433888496,0.03051250802386366,-0.00918576216386645,-0.02525426280740553,-0.0025778869921118824,0.024307871776383088,0.007914808480780303,-0.02584531710696326,0.005068692991772829,0.03805914547199255,0.008369495616746209,-0.021386253545811126,0.00492938095953145,0.04199108858310375,0.04231470805984209,0.01670417201843406,0.025616201089266617,0.06258382425871745,0.04773985610354357,0.002681623500348569,0.005135692407161215,0.050793224771322885,0.04035700984821085,-0.0024173311690667983,0.01314922925069786,0.0676358187922511,0.08549202161348737,0.07320247429577678,0.08906321160410978,0.12876394630493362,0.1404997723418865,0.1134828351401598,0.10168935968074397,0.15045969925649874,0.17776296067265332,0.1533793240796688,0.14855290603217106,0.19998583909234627,0.2321205574964393,0.2017808865788296,0.173730794495543,0.20409793622421785,0.2259560121846651,0.20691891940283336,0.14914064222042933,0.1562389556035305,0.17639541188381827,0.144837825787264,0.08962265100779285,0.099252746967884,0.11974800445650875,0.09281016586192607,0.046493417571919854,0.043392699019263466,0.06622615263556113,0.032946921834261504,-0.028392051609027257,-0.016337904324691146,0.017288273439090455,-0.0030801432183264893,-0.03859208400905311,-0.0396020556891515,0.002521405932012317,0.010060484500815484,-0.02562021475175669,-0.033279572363060284,0.010831791543199059,0.031160419252210983,-0.008988331876996427,-0.02541500045212523,0.005633598892967786,0.03235415355236508,-0.0035331554533114453,0.027509559084307487,0.18162043369474426,0.3897255553873822,0.5805912770009474,0.752064436938027,0.8998301445763345,0.937534358368828,0.7788185376177438,0.4776431484052899,0.18727076187146527,0.004832083159821864,-0.09775503091224194,0.013339207448907998,0.027235702656174126,0.006532202274963519,-0.029350203677603912,-0.004860980064713845,0.038976588821408746,0.02875728945431485,-0.011777113493397978,-0.00923199956033988,0.025594153869602447,0.012821312260862852,-0.028124687742415003,-0.01952976975345433,0.010540337103911815,0.016751150486067613,-0.031120082172867488,-0.03376663308520562,0.013132834931045641,0.018914519874519888,-0.022891229249265448,-0.032401115267845185,0.014140855877318809,0.02607597472081506,-0.005219148304477385,-0.012809120748449384,0.02274777215134626,0.06044733210614494,0.035538160334945626,0.017115772066384913,0.06779902663283166,0.10556535119905268,0.1023624856468986,0.09922007622310193,0.15012021377289891,0.2011031896167107,0.21116150088482144,0.2126867255201824,0.22727525531579665,0.2937930271789493,0.0,0.0,0.0,0.0,0.0,0.0,0.0,0.0,0.0,0.0,0.0,0.0,0.0,0.0,0.0,0.0,0.0,0.0,0.0,0.0,0.0,0.0,0.0,0.0,0.0,0.0,0.0,0.0,0.0,0.0,0.0,0.0,0.0,0.0,0.0,0.0,0.0,0.0,0.0,0.0,0.0,0.0,0.0,0.0,0.0,0.0,0.0,0.0,0.0,0.0,0.0,0.0,0.0,0.0,0.0,0.0,0.0,0.0,0.0,0.0,0.0,0.0,0.0,0.0,0.0,0.0,0.0,0.0,0.0,0.0,0.0,0.0,0.0,0.0,0.0,0.0,0.0,0.0,0.0,0.0,0.0,0.0,0.0,0.0,0.0,0.0,0.0,0.0,0.0,0.0,0.0,0.0,0.0,0.0,0.0,0.0,0.0,0.0,0.0,0.0,0.0,0.0,0.0,0.0,0.0,0.0,0.0,0.0,0.0,0.0,0.0,0.0,0.0,0.0,0.0,0.0,0.0,0.0,0.0,0.0,0.0,0.0,0.0,0.0,0.0,0.0,0.0,0.0,0.0,0.0,0.0,0.0,0.0,0.0,0.0,0.0,0.0,0.0,0.0,0.0,0.0,0.0,0.0,0.0,0.0,0.0,0.0,0.0,0.0,0.0,0.0,0.0,0.0,0.0,0.0,0.0,0.0,0.0,0.0,0.0,0.0,0.0,0.0,0.0,0.1805141408657056,0.19792520040936595,0.2300485687581768,0.2660570143982449,0.3275045466001629,0.3927673229796781,0.4790787328626006,0.5626525064368411,0.4858527622503471,0.20545858721843435,-0.1123472323639908,-0.3618300674126415,-0.3962269205548707,-0.1658875936436188,-0.0010776350283802463,0.1220006414948899,0.1839685031357906,0.21078195453897575,0.2132842980271628,0.23254134697213785,0.2232648055846495,0.24163004058767976,0.2423464771612144,0.2405694622527193,0.2428178268033198,0.24265624249589765,0.2228540365817572,0.2244676268801846,0.2324228391595773,0.25107381146659663,0.2394381722954456,0.23209120716837345,0.23554226552641525,0.2303936235327058,0.2361052488718484,0.2375947401645097,0.26079621080639703,0.2539248477539241,0.2558652288589752,0.2428947063630238,0.2431011788251276,0.25003011323499325,0.2658610653503881,0.2755017322306036,0.2832879162460029,0.29355404225828746,0.2933625101416684,0.2827272084110775,0.29188412372773703,0.3122089598840312,0.33507596125172545,0.3324283765413878,0.3474490393439061,0.3520778608481593,0.35279423209364835,0.3301698709087057,0.3187453828627205,0.3228361577168858,0.3316442090260593,0.3257346318903556,0.3029414717367534,0.3042736666888457,0.301656205971229,0.27780668778260953,0.27372950588985834,0.25918640476628085,0.2492731076759153,0.22238399878646853,0.1957710851329052,0.17373230541926382,0.16272344556264595,0.15192881427071656,0.13700838483937866,0.13952728374232815,0.12923812676760832,0.121228179505106,0.10251932246372128,0.11842113386065115,0.1127778540975122,0.11362734814131008,0.1079892217684952,0.12821786005703942,0.1483788042896114,0.1468546067965567,0.16031538186339392,0.16498337958492434,0.17809774378032495,0.1996261848039652,0.24896495713789354,0.334715186790791,0.4374120160561999,0.5742889568160364,0.7172419864538736,0.6892052121827823,0.4253681105673117,0.04657575403597684,-0.332805390028726,-0.43649713198642,-0.1760075336431908,-0.013303837042198723,0.07971695403602233,0.12036496933301427,0.15833233103287894,0.1742281253032335,0.1659312551979495,0.16801979579457935,0.16541799293915982,0.1581610348581695,0.1657127173045204,0.1643595238561764,0.1347047616644923,0.1156392199323978,0.1179882754486616,0.13098846612106596,0.12876395743659505,0.12861478130967618,0.10034615232819853,0.1109098150881351,0.12579218723572946,0.12127326221059286,0.10601479551873062,0.1037897187792578,0.12109982498940222,0.1342228232389564,0.1280711213925425,0.13505062970741766,0.1443900967154581,0.15395289996934647,0.1508075647288383,0.1673571939274515,0.20578057150203893,0.2358732535761534,0.2252709413020017,0.2214847209996037,0.23316568340147675,0.24305789899466865,0.0,0.0,0.0,0.0,0.0,0.0,0.0,0.0,0.0,0.0,0.0,0.0,0.0,0.0,0.0,0.0,0.0,0.0,0.0,0.0,0.0,0.0,0.0,0.0,0.0,0.0,0.0,0.0,0.0,0.0,0.0,0.0,0.0,0.0,0.0,0.0,0.0,0.0,0.0,0.0,0.0,0.0,0.0,0.0,0.0,0.0,0.0,0.0,0.0,0.0,0.0,0.0,0.0,0.0,0.0,0.0,0.0,0.0,0.0,0.0,0.0,0.0,0.0,0.0,0.0,0.0,0.0,0.0,0.0,0.0,0.0,0.0,0.0,0.0,0.0,0.0,0.0,0.0,0.0,0.0,0.0,0.0,0.0,0.0,0.0,0.0,0.0,0.0,0.0,0.0,0.0,0.0,0.0,0.0,0.0,0.0,0.0,0.0,0.0,0.0,0.0,0.0,0.0,0.0,0.0,0.0,0.0,0.0,0.0,0.0,0.0,0.0,0.0,0.0,0.0,0.0,0.0,0.0,0.0,0.0,0.0,0.0,0.0,0.0,0.0,0.0,0.0,0.0,0.0,0.0,0.0,0.0,0.0,0.0,0.0,0.0,0.0,0.0,0.0,0.0,0.0,0.0,0.0,0.0,0.0,0.0,0.0,0.0,0.0,0.0,0.0,0.0,0.0,0.0,0.0,0.0,0.0,0.0,0.0,0.0,0.0,0.0,0.0,0.0,0
0.1813131617583196,0.310843019147494,0.5050527851930356,0.6991768086411901,0.7593644787826395,0.7179912962976503,0.5599347915373448,0.31972190447160304,0.08368860104007524,-0.0855778381804856,-0.11253759464540004,-0.0857135011205012,0.0834060383159412,0.060210852944482376,0.023890959315791903,0.030582987022419763,0.058705707736526835,0.032707088503121734,0.006564366947995296,0.016984008613586246,0.051019446645258835,0.04175337755611734,-0.0021728448408636506,0.0012820108290179676,0.03053573107326742,0.02946487889351692,0.002392994530426328,0.009772948680966656,0.03433986161154375,0.039399370107421935,-0.0052665825399766,-0.002505511995248062,0.041211915114896115,0.035221053516325554,0.0011160074367456238,-0.004968077905587097,0.03640389396323924,0.017296753443705525,-0.016948200220481036,-0.03178388461182386,0.01597369704014935,0.037823170797139566,0.00786903883853438,-0.015590169101074232,0.01710873309375685,0.058483239522544736,0.017874237371367244,0.014028450053506685,0.036162947501737513,0.07565355557507261,0.04184052871521751,0.03619926319159236,0.05874012085200564,0.10731445647946124,0.0912614623483229,0.055925836475458776,0.08766951587171028,0.12821281132999468,0.11711676922716127,0.0759771854785725,0.10410700888133716,0.14754215748394026,0.15015920273133376,0.12059876041234248,0.13658312971141556,0.17005152946325447,0.16703658276504812,0.14265249664797575,0.1379185557821671,0.1571532884109608,0.15286270754118836,0.10129912716661472,0.10176718287132176,0.1326767439083895,0.14653125787311927,0.1109452914565136,0.08636219963829901,0.12243065232930125,0.1284751931775836,0.09153749214354016,0.05478805459230486,0.08082636281794901,0.08761027858552926,0.04922673730899396,0.00020936626858144512,0.03769750259701534,0.0731714404901613,0.06344663309463433,0.017149993343575084,0.03789646395046082,0.07602425101610555,0.04301250192620744,0.020887243355815238,0.02259185272583027,0.06322842908942576,0.06075178545852052,0.02810476571638995,0.03867703990506513,0.062234486255291835,0.04695452892772957,0.010096715102244266,0.009938052487342116,0.037831890184804685,0.033319701962422635,-0.007927749790758587,-0.0017280004761675346,0.04543147276447285,0.03639266207296033,-0.002949581662416455,0.005111236127049185,0.032499412864376354,0.04466274221093754,-0.016698231422334762,-0.054447710007034064,-0.0362130912374292,0.0013009655330238562,0.04298150187942365,0.16438624774856564,0.4108491532208941,0.6355678263501219,0.7910438200946751,0.8297755095738479,0.7107337928933004,0.4662855056097591,0.1892410595286696,-0.014638508561118618,-0.09788141192524832,-0.1187969505269942,-0.0989850824311906,-0.0665109581978376,0.08225806537370517,0.05805460556016731,0.0184878645251081,0.04344901569346659,0.06602896739362865,0.03874784532529988,0.0,0.0,0.0,0.0,0.0,0.0,0.0,0.0,0.0,0.0,0.0,0.0,0.0,0.0,0.0,0.0,0.0,0.0,0.0,0.0,0.0,0.0,0.0,0.0,0.0,0.0,0.0,0.0,0.0,0.0,0.0,0.0,0.0,0.0,0.0,0.0,0.0,0.0,0.0,0.0,0.0,0.0,0.0,0.0,0.0,0.0,0.0,0.0,0.0,0.0,0.0,0.0,0.0,0.0,0.0,0.0,0.0,0.0,0.0,0.0,0.0,0.0,0.0,0.0,0.0,0.0,0.0,0.0,0.0,0.0,0.0,0.0,0.0,0.0,0.0,0.0,0.0,0.0,0.0,0.0,0.0,0.0,0.0,0.0,0.0,0.0,0.0,0.0,0.0,0.0,0.0,0.0,0.0,0.0,0.0,0.0,0.0,0.0,0.0,0.0,0.0,0.0,0.0,0.0,0.0,0.0,0.0,0.0,0.0,0.0,0.0,0.0,0.0,0.0,0.0,0.0,0.0,0.0,0.0,0.0,0.0,0.0,0.0,0.0,0.0,0.0,0.0,0.0,0.0,0.0,0.0,0.0,0.0,0.0,0.0,0.0,0.0,0.0,0.0,0.0,0.0,0.0,0.0,0.0,0.0,0.0,0.0,0.0,0.0,0.0,0.0,0.0,0.0,0.0,0.0,0.0,0.0,0.0,0.0,0.0,0.0,0.0,0.0,0.0,0.36068332931346736,0.4264208760543173,0.4938494168100084,0.5391783524644396,0.5753146578187331,0.6518626549465568,0.6543530081431489,0.4769484266644285,0.20162621595978814,-0.033509225482806534,-0.19829581073090405,-0.3510801382836677,-0.41634275229194345,-0.23217780155389284,-0.048975661387547366,0.11388973910849805,0.2348902974549916,0.2989738199294525,0.3277869815222202,0.3429749623545337,0.3532283472017929,0.34133009314272145,0.3440320428265238,0.33763720233425576,0.3308292486140889,0.3322901704281833,0.3204767374336142,0.3148617531378897,0.3090105058429665,0.30296318774750136,0.28164666351820106,0.27532163044409563,0.2624355519371692,0.26029338403404995,0.2581340317032532,0.24087744630939675,0.2236658535057816,0.2216402745584768,0.2175582213769539,0.2028114019432661,0.2098081317496447,0.20403210410816214,0.17255422397511871,0.1758444624749094,0.1729071027418411,0.17671620040012534,0.17865668585357314,0.15284199737708404,0.16621420090714134,0.1648203383348755,0.17890083715147076,0.1782481708287367,0.1866245700465141,0.17382072253157235,0.1722323388740025,0.16460126098504324,0.17684499098401255,0.17875073020321786,0.1854401431882738,0.17317513149834796,0.15491671265619936,0.17168977719928258,0.15873596372554347,0.1462843993975439,0.15376928735558326,0.15097109974272446,0.14436958301990122,0.1296495984501051,0.12840119827027674,0.12983139544203434,0.13609951733193687,0.1385701118071226,0.13508352444260938,0.1515441468532087,0.15340856531842684,0.14715030369832086,0.13492446667314373,0.1404736838565168,0.16379282348635255,0.16385835613085933,0.147140106900879,0.16112477691675778,0.17773941920120348,0.18402206363246015,0.173486329597142,0.1720273073988751,0.16668035067684134,0.14663877900217445,0.12700099136611873,0.12286465356602355,0.13853266605183806,0.1437660978544247,0.14502536850562314,0.15092900477527266,0.15714185189543758,0.1420573919052492,0.1294036685728414,0.14074918931090005,0.1609617713494603,0.17706735424109968,0.1674557684555839,0.1795983933175455,0.1854068584756708,0.20428606909343025,0.18439874303987566,0.18184788017814746,0.18365312418603266,0.19842147018680445,0.187264821531364,0.20844126254525205,0.2252195942163997,0.2289323142167782,0.22170492446283108,0.25531478178467026,0.27359683106335136,0.2700377401812605,0.2856169825433796,0.3246126382016816,0.3869837069862498,0.418716913951759,0.4327206573574982,0.4375835897412093,0.5476746773932922,0.7154487435495476,0.7616694828945787,0.5545911863760228,0.2906058990043817,0.04736745906734817,-0.17087183450549573,-0.3598599196218633,-0.4181813282831989,-0.30267470964777704,-0.1234156365103818,0.0656785502123253,0.20638458195217368,0.3009259916659251,0.0,0.0,0.0,0.0,0.0,0.0,0.0,0.0,0.0,0.0,0.0,0.0,0.0,0.0,0.0,0.0,0.0,0.0,0.0,0.0,0.0,0.0,0.0,0.0,0.0,0.0,0.0,0.0,0.0,0.0,0.0,0.0,0.0,0.0,0.0,0.0,0.0,0.0,0.0,0.0,0.0,0.0,0.0,0.0,0.0,0.0,0.0,0.0,0.0,0.0,0.0,0.0,0.0,0.0,0.0,0.0,0.0,0.0,0.0,0.0,0.0,0.0,0.0,0.0,0.0,0.0,0.0,0.0,0.0,0.0,0.0,0.0,0.0,0.0,0.0,0.0,0.0,0.0,0.0,0.0,0.0,0.0,0.0,0.0,0.0,0.0,0.0,0.0,0.0,0.0,0.0,0.0,0.0,0.0,0.0,0.0,0.0,0.0,0.0,0.0,0.0,0.0,0.0,0.0,0.0,0.0,0.0,0.0,0.0,0.0,0.0,0.0,0.0,0.0,0.0,0.0,0.0,0.0,0.0,0.0,0.0,0.0,0.0,0.0,0.0,0.0,0.0,0.0,0.0,0.0,0.0,0.0,0.0,0.0,0.0,0.0,0.0,0.0,0.0,0.0,0.0,0.0,0.0,0.0,0.0,0.0,0.0,0.0,0.0,0.0,0.0,0.0,0.0,0.0,0.0,0.0,0.0,0.0,0.0,0.0,0.0,0.0,0.0,0.0,0
0.027509559084307487,0.18162043369474426,0.3897255553873822,0.5805912770009474,0.752064436938027,0.8998301445763345,0.937534358368828,0.7788185376177438,0.4776431484052899,0.18727076187146527,0.004832083159821864,-0.09775503091224194,0.013339207448907998,0.027235702656174126,0.006532202274963519,-0.029350203677603912,-0.004860980064713845,0.038976588821408746,0.02875728945431485,-0.011777113493397978,-0.00923199956033988,0.025594153869602447,0.012821312260862852,-0.028124687742415003,-0.01952976975345433,0.010540337103911815,0.016751150486067613,-0.031120082172867488,-0.03376663308520562,0.013132834931045641,0.018914519874519888,-0.022891229249265448,-0.032401115267845185,0.014140855877318809,0.02607597472081506,-0.005219148304477385,-0.012809120748449384,0.02274777215134626,0.06044733210614494,0.035538160334945626,0.017115772066384913,0.06779902663283166,0.10556535119905268,0.1023624856468986,0.09922007622310193,0.15012021377289891,0.2011031896167107,0.21116150088482144,0.2126867255201824,0.22727525531579665,0.2937930271789493,0.2827164082985316,0.2480205127198365,0.2436790409061157,0.2718526275743286,0.2742535591285474,0.2077045451891267,0.1866212271082996,0.20452394788020667,0.20096146568063625,0.14138742888750122,0.1099899148382634,0.12835033794706846,0.13601417207591787,0.0703674232666346,0.019913242284388837,0.04940734130385882,0.057375725659882935,0.01790306604769679,-0.006414384908056453,0.01463714487460589,0.03355429837864038,0.011468949675233727,-0.0278812389497475,0.001847293430986561,0.02077114918879773,0.015930529581729663,-0.027793294056408527,-0.008942522346066954,0.03361959000347533,0.015695290384300006,-0.02170142993711793,-0.0116507453488912,0.032892666862630406,0.025575149903290118,-0.007698161922991682,0.004313085250218036,0.05081458601216517,0.04977075312654304,0.009816440160639369,-0.008601922528295482,0.031214959581412526,0.04075528622173413,-0.010204595100963531,-0.011564846204980208,0.0366752110349963,0.03737018032267708,0.0013157854101522124,-0.02183356756859377,0.004623564530564515,-0.012138865068649186,-0.044052666424967774,-0.002601366487259649,0.17482977997705326,0.4018967666046461,0.5922547128832945,0.7588627279674202,0.9449005246967218,0.9927731972278114,0.766469375899564,0.4041436378829307,0.11950564039908748,-0.024854804843187167,-0.1131486563205472,0.027315790846966902,0.007946212854607887,0.03598614422155018,0.02076108228446606,-0.020462352126259516,-0.016446990273436195,0.004740281353099283,0.008557660522120019,-0.017948418014120813,-0.005696171689103124,0.012933061944436988,0.01419379074402848,-0.019183063892643296,-0.02459008700276557,0.03683487201416885,0.035567866474815336,0.003996720658120327,-0.0017438322429269035,0.0356220517482634,0.031905557053376186,-0.008570441208126563,-0.025353749663862463,0.0,0.0,0.0,0.0,0.0,0.0,0.0,0.0,0.0,0.0,0.0,0.0,0.0,0.0,0.0,0.0,0.0,0.0,0.0,0.0,0.0,0.0,0.0,0.0,0.0,0.0,0.0,0.0,0.0,0.0,0.0,0.0,0.0,0.0,0.0,0.0,0.0,0.0,0.0,0.0,0.0,0.0,0.0,0.0,0.0,0.0,0.0,0.0,0.0,0.0,0.0,0.0,0.0,0.0,0.0,0.0,0.0,0.0,0.0,0.0,0.0,0.0,0.0,0.0,0.0,0.0,0.0,0.0,0.0,0.0,0.0,0.0,0.0,0.0,0.0,0.0,0.0,0.0,0.0,0.0,0.0,0.0,0.0,0.0,0.0,0.0,0.0,0.0,0.0,0.0,0.0,0.0,0.0,0.0,0.0,0.0,0.0,0.0,0.0,0.0,0.0,0.0,0.0,0.0,0.0,0.0,0.0,0.0,0.0,0.0,0.0,0.0,0.0,0.0,0.0,0.0,0.0,0.0,0.0,0.0,0.0,0.0,0.0,0.0,0.0,0.0,0.0,0.0,0.0,0.0,0.0,0.0,0.0,0.0,0.0,0.0,0.0,0.0,0.0,0.0,0.0,0.0,0.0,0.0,0.0,0.0,0.0,0.0,0.0,0.0,0.0,0.0,0.0,0.0,0.0,0.0,0.0,0.0,0.0,0.0,0.0,0.0,0.0,0.0,0.16498337958492434,0.17809774378032495,0.1996261848039652,0.24896495713789354,0.334715186790791,0.4374120160561999,0.5742889568160364,0.7172419864538736,0.6892052121827823,0.4253681105673117,0.04657575403597684,-0.332805390028726,-0.43649713198642,-0.1760075336431908,-0.013303837042198723,0.07971695403602233,0.12036496933301427,0.15833233103287894,0.1742281253032335,0.1659312551979495,0.16801979579457935,0.16541799293915982,0.1581610348581695,0.1657127173045204,0.1643595238561764,0.1347047616644923,0.1156392199323978,0.1179882754486616,0.13098846612106596,0.12876395743659505,0.12861478130967618,0.10034615232819853,0.1109098150881351,0.12579218723572946,0.12127326221059286,0.10601479551873062,0.1037897187792578,0.12109982498940222,0.1342228232389564,0.1280711213925425,0.13505062970741766,0.1443900967154581,0.15395289996934647,0.1508075647288383,0.1673571939274515,0.20578057150203893,0.2358732535761534,0.2252709413020017,0.2214847209996037,0.23316568340147675,0.24305789899466865,0.2490160549172313,0.2769583619080743,0.3031487860505929,0.3275969953897485,0.3244052294047079,0.3324388716443214,0.3473851622615186,0.3390237663930069,0.3267856118249219,0.3085116705396802,0.2971530630710603,0.2883887588465787,0.2735785893914587,0.2527162485610845,0.21931758411242694,0.19064426697458986,0.16236861080386955,0.15390906278860292,0.13071260656185574,0.13378436860848372,0.10266399663134176,0.07835529463040959,0.06732033618986501,0.08465610739136725,0.08069447566023416,0.06621401505892968,0.06926350472544883,0.0876678277688698,0.10198091243283758,0.11002685716976772,0.09883512018507032,0.1050876091251091,0.11797156395389595,0.1158795688549536,0.12685661772922466,0.14872356012096571,0.17282413308587882,0.1689130693769783,0.16935019361278486,0.17842974695611946,0.19828629775034626,0.2245770439846285,0.22489345332628774,0.23374947868057516,0.22305199249930305,0.2316303066100396,0.2357066615942187,0.2352492266351163,0.2626073834100305,0.2659351206790678,0.2603087222885665,0.2759149248886825,0.2997626422161866,0.3231770605702023,0.3633877802585063,0.4203521771556628,0.5285670272931534,0.6534445707499363,0.6438177970714442,0.4283929931143369,0.1366440510157362,-0.15808675683290752,-0.3846166673288878,-0.4566361166481782,-0.1971283075068312,0.003195681797659198,0.14007336641648613,0.2006069412484789,0.2604097696336705,0.2741999520420213,0.2787296774972136,0.25893793837944096,0.2731624197491244,0.2847511649634911,0.2570508515676694,0.2591892107069081,0.2609866891217187,0.2689624807708668,0.26156973578931925,0.2604367808694128,0.23106115707409955,0.2425627545698835,0.2302130919711851,0.2285884742291314,0.2312463599281044,0.0,0.0,0.0,0.0,0.0,0.0,0.0,0.0,0.0,0.0,0.0,0.0,0.0,0.0,0.0,0.0,0.0,0.0,0.0,0.0,0.0,0.0,0.0,0.0,0.0,0.0,0.0,0.0,0.0,0.0,0.0,0.0,0.0,0.0,0.0,0.0,0.0,0.0,0.0,0.0,0.0,0.0,0.0,0.0,0.0,0.0,0.0,0.0,0.0,0.0,0.0,0.0,0.0,0.0,0.0,0.0,0.0,0.0,0.0,0.0,0.0,0.0,0.0,0.0,0.0,0.0,0.0,0.0,0.0,0.0,0.0,0.0,0.0,0.0,0.0,0.0,0.0,0.0,0.0,0.0,0.0,0.0,0.0,0.0,0.0,0.0,0.0,0.0,0.0,0.0,0.0,0.0,0.0,0.0,0.0,0.0,0.0,0.0,0.0,0.0,0.0,0.0,0.0,0.0,0.0,0.0,0.0,0.0,0.0,0.0,0.0,0.0,0.0,0.0,0.0,0.0,0.0,0.0,0.0,0.0,0.0,0.0,0.0,0.0,0.0,0.0,0.0,0.0,0.0,0.0,0.0,0.0,0.0,0.0,0.0,0.0,0.0,0.0,0.0,0.0,0.0,0.0,0.0,0.0,0.0,0.0,0.0,0.0,0.0,0.0,0.0,0.0,0.0,0.0,0.0,0.0,0.0,0.0,0.0,0.0,0.0,0.0,0.0,0.0,0
0.1276800510266092,0.2546837254705777,0.4559186960540854,0.6378827752477839,0.7646108777172191,0.8241094711258828,0.7564317152592335,0.5136140205612842,0.20352484099432008,-0.041995195137654207,-0.14385091046084875,-0.13562442739350267,0.0546046640946593,0.0024924904297840217,0.017322022816473586,0.06074245502544776,0.03926098667012028,0.010425390846112544,0.029385770102930274,0.06258562793938084,0.04050620730768684,-0.0032801693972310765,0.015145576753338632,0.040649330315628486,0.03727669404744556,-0.0165420870929614,-0.000925974301059627,0.038581920084380716,0.030066355039143018,-0.016873979170392284,-0.020716315374152198,0.030536963631671788,0.0338066795240999,0.003489739113265478,0.0019323649995495664,0.038736329028627774,0.06116906311361148,0.018895279727149064,0.0006328914851451523,0.030367912015183983,0.06495707302728893,0.03008978925655342,0.014483399053100287,0.05411065701209613,0.08904527566442128,0.05696322274648857,0.044183423721633384,0.08667756017224959,0.13171054583986824,0.11935443835467265,0.09996445188850137,0.12389520384100115,0.17437153303645558,0.15310353462293164,0.13921352573831935,0.180655892867466,0.21749798557438765,0.2185759410378233,0.19108439680550024,0.20694870205736185,0.25657912635117003,0.2392808833362502,0.19820635823723226,0.19808400804496976,0.2389094942066036,0.2199835696195788,0.16767192741652984,0.16108359411825332,0.1762353655150708,0.14838616987923467,0.08711575578282008,0.07872230558488562,0.09921975097132636,0.09105699063995752,0.039836963531120415,0.02226617446512933,0.033536804877283666,0.040071233977822994,-0.008490646395313413,-0.018660690289419662,0.01194603369469118,0.01379200248631551,-0.022723510685862102,-0.03287960007651913,0.0024947882107189674,0.021059707434036817,-0.020345007692863917,-0.0354160187309759,-0.00018238473630009054,0.02781607555674489,0.003026931946201686,-0.031395837926520946,0.015651213268971603,0.041079101931912866,0.013722993440938141,-0.013670553779447384,0.009247475839111952,0.04891579812620129,0.04540086602102145,0.010693115119250914,0.045489300935981934,0.09944524832624788,0.11262665773384832,0.07304821719998662,0.06941796976223284,0.1089294690168737,0.0860946321347802,0.053658131557508336,0.07635158045936459,0.12060987983552472,0.11450796106434595,0.053249431227889686,0.05430851116870802,0.08651575252889583,0.07554689906671103,0.042976231608940034,0.058327138071519125,0.08563392487720645,0.09612302953661647,0.039443193220098885,0.033065873365614715,0.05061387572422237,0.04653004678815529,0.0016291966332732115,-0.036144818561694506,-0.0044633053169081255,0.027144780340210613,-0.003656670880208162,-0.022547872244546643,0.004034248264448195,0.032935728994059776,0.006617742673236492,-0.03416225875924513,-0.02227463980031711,-0.012857705832624987,-0.0202905840479348,0.003383150114780931,0.16366123061040866,0.3766409094246848,0.5392388263077342,0.6994106149996184,0.8475698312578921,0.8446629247631923,0.6091714891353744,0.253768308215434,0.003804409322487403,-0.09997596563692497,-0.002443748331215909,-0.005684034648221162,0.026956097816670944,0.0,0.0,0.0,0.0,0.0,0.0,0.0,0.0,0.0,0.0,0.0,0.0,0.0,0.0,0.0,0.0,0.0,0.0,0.0,0.0,0.0,0.0,0.0,0.0,0.0,0.0,0.0,0.0,0.0,0.0,0.0,0.0,0.0,0.0,0.0,0.0,0.0,0.0,0.0,0.0,0.0,0.0,0.0,0.0,0.0,0.0,0.0,0.0,0.0,0.0,0.0,0.0,0.0,0.0,0.0,0.0,0.0,0.0,0.0,0.0,0.0,0.0,0.0,0.0,0.0,0.0,0.0,0.0,0.0,0.0,0.0,0.0,0.0,0.0,0.0,0.0,0.0,0.0,0.0,0.0,0.0,0.0,0.0,0.0,0.0,0.0,0.0,0.0,0.0,0.0,0.0,0.0,0.0,0.0,0.0,0.0,0.0,0.0,0.0,0.0,0.0,0.0,0.0,0.0,0.0,0.0,0.0,0.0,0.0,0.0,0.0,0.0,0.0,0.0,0.0,0.0,0.0,0.0,0.0,0.0,0.0,0.0,0.0,0.0,0.0,0.0,0.0,0.0,0.0,0.0,0.0,0.0,0.0,0.0,0.0,0.0,0.0,0.0,0.0,0.0,0.0,0.0,0.0,0.0,0.0,0.0,0.0,0.0,0.0,0.0,0.3735769030244077,0.42012365295599824,0.4972954699931826,0.5594927646747266,0.5922806261974158,0.6603379962532271,0.6988772461071632,0.5975554347517825,0.29157813737587635,-0.056092005696622524,-0.28728876051483265,-0.4452284006466421,-0.424456504274389,-0.1842081573942712,0.033419916905911555,0.1901338058138051,0.2836015430352049,0.3354649540187001,0.3625694977227997,0.3673741103341493,0.37631065760372817,0.3822445290354121,0.3900266037856999,0.35895383920598206,0.34661768640310275,0.3242987290321486,0.3256101479305131,0.3194316979300228,0.3225909906354104,0.3039645556692727,0.2947616399699923,0.2974202797589857,0.28560734655528275,0.2665528641530657,0.2666652222392421,0.2739918898774825,0.26698910584061697,0.2504839555950312,0.2412895608674929,0.239435471276716,0.2377576072700628,0.2147058466704461,0.18708846637165835,0.18849498942653467,0.21655188982784412,0.20175542034030505,0.20885930847539366,0.20671730332019367,0.22172149145362124,0.2035437501502428,0.21213866317155208,0.2331380950836417,0.2497753755181061,0.23569277145133524,0.2580327963889501,0.2664605475547832,0.2753716365206062,0.2679931774200838,0.2778978665935255,0.3002974725564376,0.2896453122348947,0.2867022737501705,0.29866315762042583,0.3087465884406297,0.29777222324878105,0.27772534048530617,0.2749745751766086,0.26554021465756195,0.2614032850078981,0.2745434846062755,0.2378225548559126,0.22794931891354145,0.23292486389937544,0.2095819720516641,0.17229164277271214,0.14501372451969294,0.13492488460329052,0.10125158044192054,0.07514382206504408,0.04459657690293895,0.05034886997278274,0.037240533661577514,0.010048004641532346,-0.016862569653082894,-0.009945298098563336,-0.009974389103737664,-0.021760992656381074,-0.023743094524298892,-0.018331355592816817,-0.019921552359192168,-0.030920348635989737,-0.022565350552930626,-0.014040711630260893,-0.014938544715194957,-0.003682463651972732,-0.0018491994643670415,0.002549506034448046,0.035886932152341185,0.04541969549063588,0.04553351196909847,0.06260124161492922,0.07504603196412317,0.08766293419947213,0.10524662427360826,0.11580902013621668,0.14811857560395986,0.1758012579012072,0.19166208758890824,0.2148774228747281,0.22626307579697744,0.2378009491422223,0.213522329558004,0.2181512328167736,0.2324990086379551,0.2493632871907191,0.25434811342564684,0.2426461824416122,0.2478085054558385,0.2506404471486267,0.2271511846753859,0.2492476116365802,0.24258955716463185,0.25750426469538273,0.26280364051669186,0.24887557156573506,0.2660434867910425,0.27112807535717776,0.2425259643819109,0.2353516010604678,0.2567687351346072,0.24441318659379646,0.25579320364294084,0.2549143170149041,0.26092268602372376,0.2809758242059411,0.27667792990220397,0.2863509722918718,0.33153321747637843,0.3738246437727395,0.4467477990673512,0.4927193409584644,0.526077920540803,0.6210965813419427,0.5835286214874414,0.3294080487143354,-0.028641159106500582,-0.31805981511487835,-0.5413016311468005,-0.2956169565960295,-0.03889796978580451,0.0,0.0,0.0,0.0,0.0,0.0,0.0,0.0,0.0,0.0,0.0,0.0,0.0,0.0,0.0,0.0,0.0,0.0,0.0,0.0,0.0,0.0,0.0,0.0,0.0,0.0,0.0,0.0,0.0,0.0,0.0,0.0,0.0,0.0,0.0,0.0,0.0,0.0,0.0,0.0,0.0,0.0,0.0,0.0,0.0,0.0,0.0,0.0,0.0,0.0,0.0,0.0,0.0,0.0,0.0,0.0,0.0,0.0,0.0,0.0,0.0,0.0,0.0,0.0,0.0,0.0,0.0,0.0,0.0,0.0,0.0,0.0,0.0,0.0,0.0,0.0,0.0,0.0,0.0,0.0,0.0,0.0,0.0,0.0,0.0,0.0,0.0,0.0,0.0,0.0,0.0,0.0,0.0,0.0,0.0,0.0,0.0,0.0,0.0,0.0,0.0,0.0,0.0,0.0,0.0,0.0,0.0,0.0,0.0,0.0,0.0,0.0,0.0,0.0,0.0,0.0,0.0,0.0,0.0,0.0,0.0,0.0,0.0,0.0,0.0,0.0,0.0,0.0,0.0,0.0,0.0,0.0,0.0,0.0,0.0,0.0,0.0,0.0,0.0,0.0,0.0,0.0,0.0,0.0,0.0,0.0,0.0,0.0,0.0,0.0,0
0.1276800510266092,0.2546837254705777,0.4559186960540854,0.6378827752477839,0.7646108777172191,0.8241094711258828,0.7564317152592335,0.5136140205612842,0.20352484099432008,-0.041995195137654207,-0.14385091046084875,-0.13562442739350267,0.0546046640946593,0.0024924904297840217,0.017322022816473586,0.06074245502544776,0.03926098667012028,0.010425390846112544,0.029385770102930274,0.06258562793938084,0.04050620730768684,-0.0032801693972310765,0.015145576753338632,0.040649330315628486,0.03727669404744556,-0.0165420870929614,-0.000925974301059627,0.038581920084380716,0.030066355039143018,-0.016873979170392284,-0.020716315374152198,0.030536963631671788,0.0338066795240999,0.003489739113265478,0.0019323649995495664,0.038736329028627774,0.06116906311361148,0.018895279727149064,0.0006328914851451523,0.030367912015183983,0.06495707302728893,0.03008978925655342,0.014483399053100287,0.05411065701209613,0.08904527566442128,0.05696322274648857,0.044183423721633384,0.08667756017224959,0.13171054583986824,0.11935443835467265,0.09996445188850137,0.12389520384100115,0.17437153303645558,0.15310353462293164,0.13921352573831935,0.180655892867466,0.21749798557438765,0.2185759410378233,0.19108439680550024,0.20694870205736185,0.25657912635117003,0.2392808833362502,0.19820635823723226,0.19808400804496976,0.2389094942066036,0.2199835696195788,0.16767192741652984,0.16108359411825332,0.1762353655150708,0.14838616987923467,0.08711575578282008,0.07872230558488562,0.09921975097132636,0.09105699063995752,0.039836963531120415,0.02226617446512933,0.033536804877283666,0.040071233977822994,-0.008490646395313413,-0.018660690289419662,0.01194603369469118,0.01379200248631551,-0.022723510685862102,-0.03287960007651913,0.0024947882107189674,0.021059707434036817,-0.020345007692863917,-0.0354160187309759,-0.00018238473630009054,0.02781607555674489,0.003026931946201686,-0.031395837926520946,0.015651213268971603,0.041079101931912866,0.013722993440938141,-0.013670553779447384,0.009247475839111952,0.04891579812620129,0.04540086602102145,0.010693115119250914,0.045489300935981934,0.09944524832624788,0.11262665773384832,0.07304821719998662,0.06941796976223284,0.1089294690168737,0.0860946321347802,0.053658131557508336,0.07635158045936459,0.12060987983552472,0.11450796106434595,0.053249431227889686,0.05430851116870802,0.08651575252889583,0.07554689906671103,0.042976231608940034,0.058327138071519125,0.08563392487720645,0.09612302953661647,0.039443193220098885,0.033065873365614715,0.05061387572422237,0.04653004678815529,0.0016291966332732115,-0.036144818561694506,-0.0044633053169081255,0.027144780340210613,-0.003656670880208162,-0.022547872244546643,0.004034248264448195,0.032935728994059776,0.006617742673236492,-0.03416225875924513,-0.02227463980031711,-0.012857705832624987,-0.0202905840479348,0.003383150114780931,0.16366123061040866,0.3766409094246848,0.5392388263077342,0.6994106149996184,0.8475698312578921,0.8446629247631923,0.6091714891353744,0.253768308215434,0.003804409322487403,-0.09997596563692497,-0.002443748331215909,-0.005684034648221162,0.026956097816670944,0.0,0.0,0.0,0.0,0.0,0.0,0.0,0.0,0.0,0.0,0.0,0.0,0.0,0.0,0.0,0.0,0.0,0.0,0.0,0.0,0.0,0.0,0.0,0.0,0.0,0.0,0.0,0.0,0.0,0.0,0.0,0.0,0.0,0.0,0.0,0.0,0.0,0.0,0.0,0.0,0.0,0.0,0.0,0.0,0.0,0.0,0.0,0.0,0.0,0.0,0.0,0.0,0.0,0.0,0.0,0.0,0.0,0.0,0.0,0.0,0.0,0.0,0.0,0.0,0.0,0.0,0.0,0.0,0.0,0.0,0.0,0.0,0.0,0.0,0.0,0.0,0.0,0.0,0.0,0.0,0.0,0.0,0.0,0.0,0.0,0.0,0.0,0.0,0.0,0.0,0.0,0.0,0.0,0.0,0.0,0.0,0.0,0.0,0.0,0.0,0.0,0.0,0.0,0.0,0.0,0.0,0.0,0.0,0.0,0.0,0.0,0.0,0.0,0.0,0.0,0.0,0.0,0.0,0.0,0.0,0.0,0.0,0.0,0.0,0.0,0.0,0.0,0.0,0.0,0.0,0.0,0.0,0.0,0.0,0.0,0.0,0.0,0.0,0.0,0.0,0.0,0.0,0.0,0.0,0.0,0.0,0.0,0.0,0.0,0.0,0.3735769030244077,0.42012365295599824,0.4972954699931826,0.5594927646747266,0.5922806261974158,0.6603379962532271,0.6988772461071632,0.5975554347517825,0.29157813737587635,-0.056092005696622524,-0.28728876051483265,-0.4452284006466421,-0.424456504274389,-0.1842081573942712,0.033419916905911555,0.1901338058138051,0.2836015430352049,0.3354649540187001,0.3625694977227997,0.3673741103341493,0.37631065760372817,0.3822445290354121,0.3900266037856999,0.35895383920598206,0.34661768640310275,0.3242987290321486,0.3256101479305131,0.3194316979300228,0.3225909906354104,0.3039645556692727,0.2947616399699923,0.2974202797589857,0.28560734655528275,0.2665528641530657,0.2666652222392421,0.2739918898774825,0.26698910584061697,0.2504839555950312,0.2412895608674929,0.239435471276716,0.2377576072700628,0.2147058466704461,0.18708846637165835,0.18849498942653467,0.21655188982784412,0.20175542034030505,0.20885930847539366,0.20671730332019367,0.22172149145362124,0.2035437501502428,0.21213866317155208,0.2331380950836417,0.2497753755181061,0.23569277145133524,0.2580327963889501,0.2664605475547832,0.2753716365206062,0.2679931774200838,0.2778978665935255,0.3002974725564376,0.2896453122348947,0.2867022737501705,0.29866315762042583,0.3087465884406297,0.29777222324878105,0.27772534048530617,0.2749745751766086,0.26554021465756195,0.2614032850078981,0.2745434846062755,0.2378225548559126,0.22794931891354145,0.23292486389937544,0.2095819720516641,0.17229164277271214,0.14501372451969294,0.13492488460329052,0.10125158044192054,0.07514382206504408,0.04459657690293895,0.05034886997278274,0.037240533661577514,0.010048004641532346,-0.016862569653082894,-0.009945298098563336,-0.009974389103737664,-0.021760992656381074,-0.023743094524298892,-0.018331355592816817,-0.019921552359192168,-0.030920348635989737,-0.022565350552930626,-0.014040711630260893,-0.014938544715194957,-0.003682463651972732,-0.0018491994643670415,0.002549506034448046,0.035886932152341185,0.04541969549063588,0.04553351196909847,0.06260124161492922,0.07504603196412317,0.08766293419947213,0.10524662427360826,0.11580902013621668,0.14811857560395986,0.1758012579012072,0.19166208758890824,0.2148774228747281,0.22626307579697744,0.2378009491422223,0.213522329558004,0.2181512328167736,0.2324990086379551,0.2493632871907191,0.25434811342564684,0.2426461824416122,0.2478085054558385,0.2506404471486267,0.2271511846753859,0.2492476116365802,0.24258955716463185,0.25750426469538273,0.26280364051669186,0.24887557156573506,0.2660434867910425,0.27112807535717776,0.2425259643819109,0.2353516010604678,0.2567687351346072,0.24441318659379646,0.25579320364294084,0.2549143170149041,0.26092268602372376,0.2809758242059411,0.27667792990220397,0.2863509722918718,0.33153321747637843,0.3738246437727395,0.4467477990673512,0.4927193409584644,0.526077920540803,0.6210965813419427,0.5835286214874414,0.3294080487143354,-0.028641159106500582,-0.31805981511487835,-0.5413016311468005,-0.2956169565960295,-0.03889796978580451,0.0,0.0,0.0,0.0,0.0,0.0,0.0,0.0,0.0,0.0,0.0,0.0,0.0,0.0,0.0,0.0,0.0,0.0,0.0,0.0,0.0,0.0,0.0,0.0,0.0,0.0,0.0,0.0,0.0,0.0,0.0,0.0,0.0,0.0,0.0,0.0,0.0,0.0,0.0,0.0,0.0,0.0,0.0,0.0,0.0,0.0,0.0,0.0,0.0,0.0,0.0,0.0,0.0,0.0,0.0,0.0,0.0,0.0,0.0,0.0,0.0,0.0,0.0,0.0,0.0,0.0,0.0,0.0,0.0,0.0,0.0,0.0,0.0,0.0,0.0,0.0,0.0,0.0,0.0,0.0,0.0,0.0,0.0,0.0,0.0,0.0,0.0,0.0,0.0,0.0,0.0,0.0,0.0,0.0,0.0,0.0,0.0,0.0,0.0,0.0,0.0,0.0,0.0,0.0,0.0,0.0,0.0,0.0,0.0,0.0,0.0,0.0,0.0,0.0,0.0,0.0,0.0,0.0,0.0,0.0,0.0,0.0,0.0,0.0,0.0,0.0,0.0,0.0,0.0,0.0,0.0,0.0,0.0,0.0,0.0,0.0,0.0,0.0,0.0,0.0,0.0,0.0,0.0,0.0,0.0,0.0,0.0,0.0,0.0,0.0,0
-0.04633390179330042,0.017922370310681956,0.16609219896553445,0.405384058690931,0.6111445102805259,0.7642069542196993,0.9029411170596554,0.9266593983282544,0.7106949404359495,0.3557388311673343,0.06796747144432108,0.003208524429838163,-0.027946977280790614,0.008057087295087742,0.029700730526218917,-0.0013815391628071007,-0.03245134068612657,-0.013167635952837731,0.032491994528676245,0.006229519698797188,-0.024827531320488747,0.001653390962841379,0.061698121973724235,0.05221583891112663,0.0,0.0,0.0,0.0,0.0,0.0,0.0,0.0,0.0,0.0,0.0,0.0,0.0,0.0,0.0,0.0,0.0,0.0,0.0,0.0,0.0,0.0,0.0,0.0,0.0,0.0,0.0,0.0,0.0,0.0,0.0,0.0,0.0,0.0,0.0,0.0,0.0,0.0,0.0,0.0,0.0,0.0,0.0,0.0,0.0,0.0,0.0,0.0,0.0,0.0,0.0,0.0,0.0,0.0,0.0,0.0,0.0,0.0,0.0,0.0,0.0,0.0,0.0,0.0,0.0,0.0,0.0,0.0,0.0,0.0,0.0,0.0,0.0,0.0,0.0,0.0,0.0,0.0,0.0,0.0,0.0,0.0,0.0,0.0,0.0,0.0,0.0,0.0,0.0,0.0,0.0,0.0,0.0,0.0,0.0,0.0,0.0,0.0,0.0,0.0,0.0,0.0,0.0,0.0,0.0,0.0,0.0,0.0,0.0,0.0,0.0,0.0,0.0,0.0,0.0,0.0,0.0,0.0,0.0,0.0,0.0,0.0,0.0,0.0,0.0,0.0,0.0,0.0,0.0,0.0,0.0,0.0,0.0,0.0,0.0,0.0,0.0,0.0,0.0,0.0,0.0,0.0,0.0,0.0,0.0,0.0,0.0,0.0,0.0,0.0,0.0,0.0,0.0,0.0,0.0,0.0,0.0,0.0,0.0,0.0,0.0,0.0,0.0,0.0,0.0,0.0,0.0,0.0,0.0,0.0,0.0,0.0,0.0,0.0,0.0,0.0,0.0,0.0,0.0,0.0,0.0,0.0,0.0,0.0,0.0,0.0,0.0,0.0,0.0,0.0,0.0,0.0,0.0,0.0,0.0,0.0,0.0,0.0,0.0,0.0,0.0,0.0,0.0,0.0,0.0,0.0,0.0,0.0,0.0,0.0,0.0,0.0,0.0,0.0,0.0,0.0,0.0,0.0,0.0,0.0,0.0,0.0,0.0,0.0,0.0,0.0,0.0,0.0,0.0,0.0,0.0,0.0,0.0,0.0,0.0,0.0,0.0,0.0,0.0,0.0,0.0,0.0,0.0,0.0,0.0,0.0,0.0,0.0,0.0,0.0,0.0,0.0,0.0,0.0,0.0,0.0,0.0,0.0,0.0,0.0,0.0,0.0,0.0,0.0,0.0,0.0,0.0,0.0,0.0,0.0,0.0,0.0,0.0,0.0,0.0,0.0,0.21923318910037756,0.2320659882328803,0.2449691202336315,0.30347263697113946,0.3548089215798382,0.41573559282526223,0.5581504029755309,0.6022142302966602,0.3776750592673809,-0.03878228986295428,-0.3690870489609778,-0.2320733732049477,0.041409795865394936,0.2356143272575125,0.3337822449480166,0.3814887251126219,0.40992242956872404,0.4334877930018175,0.4498048807969723,0.4900562302768455,0.4943181085747632,0.5201405703608318,0.5435570745144171,0.5765605928297673,0.0,0.0,0.0,0.0,0.0,0.0,0.0,0.0,0.0,0.0,0.0,0.0,0.0,0.0,0.0,0.0,0.0,0.0,0.0,0.0,0.0,0.0,0.0,0.0,0.0,0.0,0.0,0.0,0.0,0.0,0.0,0.0,0.0,0.0,0.0,0.0,0.0,0.0,0.0,0.0,0.0,0.0,0.0,0.0,0.0,0.0,0.0,0.0,0.0,0.0,0.0,0.0,0.0,0.0,0.0,0.0,0.0,0.0,0.0,0.0,0.0,0.0,0.0,0.0,0.0,0.0,0.0,0.0,0.0,0.0,0.0,0.0,0.0,0.0,0.0,0.0,0.0,0.0,0.0,0.0,0.0,0.0,0.0,0.0,0.0,0.0,0.0,0.0,0.0,0.0,0.0,0.0,0.0,0.0,0.0,0.0,0.0,0.0,0.0,0.0,0.0,0.0,0.0,0.0,0.0,0.0,0.0,0.0,0.0,0.0,0.0,0.0,0.0,0.0,0.0,0.0,0.0,0.0,0.0,0.0,0.0,0.0,0.0,0.0,0.0,0.0,0.0,0.0,0.0,0.0,0.0,0.0,0.0,0.0,0.0,0.0,0.0,0.0,0.0,0.0,0.0,0.0,0.0,0.0,0.0,0.0,0.0,0.0,0.0,0.0,0.0,0.0,0.0,0.0,0.0,0.0,0.0,0.0,0.0,0.0,0.0,0.0,0.0,0.0,0.0,0.0,0.0,0.0,0.0,0.0,0.0,0.0,0.0,0.0,0.0,0.0,0.0,0.0,0.0,0.0,0.0,0.0,0.0,0.0,0.0,0.0,0.0,0.0,0.0,0.0,0.0,0.0,0.0,0.0,0.0,0.0,0.0,0.0,0.0,0.0,0.0,0.0,0.0,0.0,0.0,0.0,0.0,0.0,0.0,0.0,0.0,0.0,0.0,0.0,0.0,0.0,0.0,0.0,0.0,0.0,0.0,0.0,0.0,0.0,0.0,0.0,0.0,0.0,0.0,0.0,0.0,0.0,0.0,0.0,0.0,0.0,0.0,0.0,0.0,0.0,0.0,0.0,0.0,0.0,0.0,0.0,0.0,0.0,0.0,0.0,0.0,0.0,0.0,0.0,0.0,0.0,0.0,0.0,0.0,0.0,0.0,0.0,0.0,0.0,0.0,0.0,0.0,0.0,0.0,0.0,0.0,0.0,0.0,0.0,0.0,0.0,0
0.3936742650171739,0.6088634646186492,0.8461219339762603,0.9464678882967326,0.8922302078176173,0.6789813119033202,0.39061096854251853,0.1308779580167745,-0.06049420453429277,-0.1217022059170262,-0.07484270527488279,0.06683138093577386,0.08030994809922032,0.03846062019011647,-0.0013056970772975214,0.02725389068564829,0.06452382297902982,0.03101599583402482,-0.007027031208042726,0.00780496533664103,0.04460106674454485,0.021665274646507485,-0.025672234379680317,-0.009088306217415429,0.040508208915503184,0.02596796685888477,-0.02400000015868959,-0.0232776133945216,0.010477359408112948,0.03311281894661778,0.0004766135315995589,-0.005724995160613287,0.04101312105367129,0.05458632676916555,0.012923093602076163,-0.017726569987714245,0.03330337033297442,0.05562092288208583,0.04040401070231847,0.011950957397497441,0.045344925172197605,0.07435412083571086,0.04820284118338259,0.00664486625964623,0.02917854949361865,0.08710799411533073,0.08107970964181803,0.039806394224344836,0.060449743191492426,0.11872876439881976,0.12632885136607036,0.09650488521077193,0.1220007442039742,0.16749319991810155,0.1755779614780297,0.1506751673853518,0.14357302838389127,0.1697302779315106,0.1894038005113616,0.14297722475576166,0.14526880658426267,0.17198923663417953,0.1723519362662013,0.11323382884989575,0.09840978114687964,0.11021160530857436,0.11551430472681636,0.0679440602691189,0.03594482793937452,0.06587977157734694,0.08046134161322617,0.035522337744085516,0.00612960055695859,0.034229114361448994,0.06461284206631668,0.026616258724070398,-0.015734723769643775,0.003793718643909277,0.04103464260308549,0.027532588089437128,0.003026106886058081,0.02050188457939808,0.05345696282759359,0.020187149669789368,0.004591379189022045,0.02653517244548011,0.06834725838794946,0.04611487595787128,0.017239818000890618,0.0148351491000623,0.04993339519552368,0.03199692681006018,-0.03235814444767788,-0.028321649978919814,0.004356485732035423,0.001640531069426793,-0.04309609101098421,-0.02166161304818858,0.02399274992944174,0.04529370501362635,0.015748291776162562,-0.011647047881898508,0.042600592131628263,0.05926115238402941,0.027298577414385548,0.001917872787497588,0.04273999806404472,0.06807100757484627,0.01608914915017606,-0.0028001406728758514,0.033486684421724894,0.0542955364993012,0.015468703124346945,-0.003501265930892723,0.01284478967521189,0.031389367528133434,0.023430991478161745,0.04858983820405879,0.20623078162851846,0.4234909236631895,0.6010097921332191,0.7741155573164842,0.9383885700430108,0.9723789126127529,0.7347595681833701,0.3690364945433323,0.10261769496981367,-0.04464692541446321,-0.12356542239549848,-0.13415656968057454,0.03176681471290831,0.018715156321292725,0.05853875685265837,0.054089083026273896,0.000955209131699102,-0.021368341700377137,0.013619863019502468,0.033061249776033176,0.006050036597867242,0.00766644793777985,0.0,0.0,0.0,0.0,0.0,0.0,0.0,0.0,0.0,0.0,0.0,0.0,0.0,0.0,0.0,0.0,0.0,0.0,0.0,0.0,0.0,0.0,0.0,0.0,0.0,0.0,0.0,0.0,0.0,0.0,0.0,0.0,0.0,0.0,0.0,0.0,0.0,0.0,0.0,0.0,0.0,0.0,0.0,0.0,0.0,0.0,0.0,0.0,0.0,0.0,0.0,0.0,0.0,0.0,0.0,0.0,0.0,0.0,0.0,0.0,0.0,0.0,0.0,0.0,0.0,0.0,0.0,0.0,0.0,0.0,0.0,0.0,0.0,0.0,0.0,0.0,0.0,0.0,0.0,0.0,0.0,0.0,0.0,0.0,0.0,0.0,0.0,0.0,0.0,0.0,0.0,0.0,0.0,0.0,0.0,0.0,0.0,0.0,0.0,0.0,0.0,0.0,0.0,0.0,0.0,0.0,0.0,0.0,0.0,0.0,0.0,0.0,0.0,0.0,0.0,0.0,0.0,0.0,0.0,0.0,0.0,0.0,0.0,0.0,0.0,0.0,0.0,0.0,0.0,0.0,0.0,0.0,0.0,0.0,0.0,0.0,0.0,0.0,0.0,0.0,0.0,0.0,0.0,0.0,0.0,0.0,0.0,0.0,0.0,0.0,0.0,0.0,0.0,0.0,0.0,0.0,0.0,0.0,0.0,0.0,0.35905342413629004,0.4401075828638567,0.5316791197845392,0.6182667716440932,0.7351516574134785,0.7762969090893012,0.5738367160671628,0.2601955394941737,-0.02558089293298861,-0.2548504167144811,-0.4365052063201389,-0.3961454701464411,-0.17130229205601025,0.026095303601958574,0.16740232147978346,0.2769667216184504,0.30185404349394185,0.32602724690036244,0.3186294296536963,0.3282916882314719,0.3241538971662901,0.30847496819805204,0.29676046376346915,0.29789026819126346,0.3030784200527761,0.2858731065129453,0.2728140852097949,0.2639431414832229,0.2703409228246151,0.2456775806556984,0.2297356792245125,0.24021610194736664,0.2329933167194567,0.2345980381757167,0.21194259438616286,0.21805190496154755,0.2286682462462553,0.2283649853026766,0.22379479829579824,0.23485749103197695,0.2417069359446886,0.23553605740186734,0.198704390259237,0.21734841817822292,0.2142082832139761,0.21359312192116245,0.2221466378579704,0.22443101417315095,0.2337119114592416,0.2389653704654989,0.22475017289285634,0.221992855747433,0.2284981536187422,0.2486938268651668,0.2450536337110493,0.2462914462430805,0.2612475040803376,0.2656401367189257,0.2660990008387877,0.24938001771973856,0.2486067282786264,0.2549485668889386,0.2463254534242248,0.22936062119217604,0.2150921623619813,0.19468461510027946,0.1813818945567247,0.15530626379215448,0.1230756218905267,0.1045553628707766,0.08648958670798877,0.05782991584481626,0.0450643094304853,0.05480803026519816,0.040683029962424025,0.02696843391572874,0.01807075690408356,0.038268786063734905,0.034559634623748524,0.02018158180074225,0.012788824501926331,0.03886763970413298,0.052038747375441306,0.0456674875446213,0.05065570920121282,0.051536082865280296,0.07920997591037984,0.06963255252119506,0.07578497878481566,0.10207107724914817,0.10652534140516763,0.1045909307424141,0.10508633639057244,0.12124561701343928,0.11772531046670888,0.12321466046508997,0.13328164343099788,0.13245339349163165,0.14058510227609705,0.15103475621393958,0.15715963880919315,0.1611484593696416,0.18947763909308502,0.1935492551260129,0.20425406602449847,0.21052900295506694,0.230014563990889,0.24060538016123126,0.2511075658438986,0.2570777609234986,0.2629035307243405,0.26634701944878075,0.2563368758039909,0.2659613216497003,0.2907705280067525,0.288776566934876,0.29085554970579003,0.3035936460201687,0.3313675260565549,0.3940086587359404,0.4495215892989697,0.5265663407632412,0.6184719646282829,0.75168555822766,0.7737994617401122,0.5699390260710938,0.246030257567026,-0.04121864649999799,-0.2742075694052859,-0.4331244334083449,-0.3965610298079825,-0.182174853477945,0.03343501641029506,0.1752568885379522,0.2808892118746789,0.3238962470185852,0.3507063431863524,0.3415048727819443,0.3537570382310048,0.3521884341707384,0.0,0.0,0.0,0.0,0.0,0.0,0.0,0.0,0.0,0.0,0.0,0.0,0.0,0.0,0.0,0.0,0.0,0.0,0.0,0.0,0.0,0.0,0.0,0.0,0.0,0.0,0.0,0.0,0.0,0.0,0.0,0.0,0.0,0.0,0.0,0.0,0.0,0.0,0.0,0.0,0.0,0.0,0.0,0.0,0.0,0.0,0.0,0.0,0.0,0.0,0.0,0.0,0.0,0.0,0.0,0.0,0.0,0.0,0.0,0.0,0.0,0.0,0.0,0.0,0.0,0.0,0.0,0.0,0.0,0.0,0.0,0.0,0.0,0.0,0.0,0.0,0.0,0.0,0.0,0.0,0.0,0.0,0.0,0.0,0.0,0.0,0.0,0.0,0.0,0.0,0.0,0.0,0.0,0.0,0.0,0.0,0.0,0.0,0.0,0.0,0.0,0.0,0.0,0.0,0.0,0.0,0.0,0.0,0.0,0.0,0.0,0.0,0.0,0.0,0.0,0.0,0.0,0.0,0.0,0.0,0.0,0.0,0.0,0.0,0.0,0.0,0.0,0.0,0.0,0.0,0.0,0.0,0.0,0.0,0.0,0.0,0.0,0.0,0.0,0.0,0.0,0.0,0.0,0.0,0.0,0.0,0.0,0.0,0.0,0.0,0.0,0.0,0.0,0.0,0.0,0.0,0.0,0.0,0.0,0.0,0
0.8820882672177285,0.5768942009146227,0.1876732517690142,-0.009596912033579177,-0.10547507124143413,-0.05362028974445383,-0.09693553831491318,-0.058790097364839526,-0.02309337726728404,-0.04504461515907271,-0.06281445635390535,-0.010153176438276236,0.033463930245412735,0.028307348305410693,0.0008887523617981377,0.03071276136309945,0.08025759186179197,0.10316912586901486,0.07738134179615824,0.08460582869497185,0.11381588844642099,0.10761544977028972,0.06160095817210566,0.06410622134422307,0.11293488395451234,0.11536041512004487,0.0691855743031646,0.0848228516276601,0.12916145040456975,0.10947292823233963,0.06330286632074578,0.061316977180664,0.11014734472153878,0.10602348404879144,0.07324098370531865,0.055967309316041776,0.10499369603411167,0.1253801130468713,0.07297104519398648,0.05375742703258468,0.09424019946678837,0.11272581763883015,0.07830530611074825,0.05722311656833365,0.08260263050510536,0.12574167645628254,0.09390435785683217,0.06878972373957573,0.0989756749498042,0.14692600385326268,0.1221109220721354,0.08635502846099702,0.1125225375417254,0.1520347436200049,0.132023880700622,0.08339954910063402,0.09227182012726352,0.1277239501377018,0.10142955777608807,0.04871215675224482,0.062303929982156614,0.08699778544738036,0.05654609338790936,0.008478915540798625,0.011238664333994659,0.04052980953679073,0.005815407393675942,-0.039918747615029816,-0.023814482886599063,0.012171813754816498,0.019461881127790976,-0.026234105119960056,-0.001267035276482738,0.06565957074775391,0.09505727278982884,0.04497407154347411,0.03464479525599816,0.1016063732621902,0.10675194212224318,0.07436947844880701,0.07511537522685842,0.11340429626249962,0.11416090098717775,0.0729667296311063,0.053852154195859016,0.07227018647294095,0.07522416641722106,0.018549253610166988,-0.0028129180914728607,0.0243815183806202,0.04051120425735318,0.0058270660614859965,-0.013434000509870916,0.024676373416852138,0.03845729925983976,0.0036169414093608788,-0.018022963499884862,0.017694941127032963,0.04231941660305733,-0.0015606380116608696,-0.023417503880409626,0.0209077359620963,0.05854982519172545,0.025475583923197532,-0.007657700570546281,0.02318299587236727,0.04513261974363551,0.022862770774482958,-0.00829772914671672,0.017892460975914553,0.02856862002641094,-0.02705361012967087,-0.08052428727320614,0.007266548728140389,0.16567220959763396,0.3372942421920925,0.4934379531842616,0.6848965915734545,0.8697230389051436,0.8646518566013469,0.6255201078650013,0.3090926498785905,0.08537948369035525,-0.07433500710916018,0.024245703855827395,0.054326527112448175,0.03356731008302166,-0.01374823570962022,-0.005927390225244592,0.032737700928402134,0.038210640846755566,-0.007176180931215491,-0.015104394189375082,0.012215198005908869,0.041660594084357946,-0.019507490198630392,-0.034391841974823416,0.019088252127677452,0.030534058042793837,-0.006675127250824304,0.0,0.0,0.0,0.0,0.0,0.0,0.0,0.0,0.0,0.0,0.0,0.0,0.0,0.0,0.0,0.0,0.0,0.0,0.0,0.0,0.0,0.0,0.0,0.0,0.0,0.0,0.0,0.0,0.0,0.0,0.0,0.0,0.0,0.0,0.0,0.0,0.0,0.0,0.0,0.0,0.0,0.0,0.0,0.0,0.0,0.0,0.0,0.0,0.0,0.0,0.0,0.0,0.0,0.0,0.0,0.0,0.0,0.0,0.0,0.0,0.0,0.0,0.0,0.0,0.0,0.0,0.0,0.0,0.0,0.0,0.0,0.0,0.0,0.0,0.0,0.0,0.0,0.0,0.0,0.0,0.0,0.0,0.0,0.0,0.0,0.0,0.0,0.0,0.0,0.0,0.0,0.0,0.0,0.0,0.0,0.0,0.0,0.0,0.0,0.0,0.0,0.0,0.0,0.0,0.0,0.0,0.0,0.0,0.0,0.0,0.0,0.0,0.0,0.0,0.0,0.0,0.0,0.0,0.0,0.0,0.0,0.0,0.0,0.0,0.0,0.0,0.0,0.0,0.0,0.0,0.0,0.0,0.0,0.0,0.0,0.0,0.0,0.0,0.0,0.0,0.0,0.0,0.0,0.0,0.0,0.0,0.0,0.0,0.0,0.0,0.0,0.0,0.0,0.0,0.0,0.0,0.0,0.0,0.0,0.0,0.6755646676522801,0.4048323841630588,0.07795126110849232,-0.21903193170877788,-0.5060569859727877,-0.5005406868536241,-0.18923326392240133,0.03488227964859112,0.1630407903697354,0.22180566425013906,0.25761188929440243,0.2749404848355322,0.2893114083690022,0.29195474499965185,0.30280372145225426,0.3152935617452645,0.31402579490099924,0.3277612783616215,0.3212259873532199,0.34525802282641826,0.3667881603153594,0.3615776300416027,0.3650030498842403,0.3616541892134108,0.3604074900722135,0.35026517903335685,0.3246437711208643,0.3409913421199637,0.33310381091159313,0.3142650202177593,0.304381282974562,0.31010906932670385,0.32927114653494105,0.3044876002051149,0.29761131278400177,0.2976281512157469,0.30677076585422763,0.2963576854912071,0.2929070361741877,0.3008550097184172,0.3047639262045172,0.3046509181487405,0.29169941327017745,0.29242003994345195,0.2935771536472317,0.2973899644706645,0.2773716264401536,0.2909395259188246,0.3116039431251265,0.2952093416248167,0.3212491606493708,0.314652196276764,0.3173720362914539,0.28524693068598955,0.28893189530064145,0.2798460765443583,0.2866887597200085,0.27412451881297795,0.2553934897412746,0.2238620306008676,0.22368026314108044,0.2018431990482429,0.15833781747255513,0.12847881225834573,0.11225136165073217,0.08755954905694326,0.05659539431560957,0.028174615200764686,0.0309850537089154,0.01864087265447912,-0.011083015185740386,-0.025083066329178616,-0.032207544050100664,-0.032470147753939374,-0.02146542664067735,-0.0058250714681743155,0.027693673420685568,0.054797347910300914,0.06885671537176526,0.07869858190011178,0.0953574545511796,0.12103526591036726,0.14689324555388678,0.13317938446026228,0.1549592918496928,0.1548151963824903,0.1658584069422001,0.15495810100490345,0.1485998483529808,0.14235581055694946,0.11634108947740547,0.11691143252737465,0.1021001956391255,0.12267805045183924,0.13888530308402633,0.1197938272414758,0.11838052149000572,0.13021250907234655,0.13760804986232472,0.13171693364875234,0.15888939328976084,0.16611296706158962,0.15999162039184592,0.15375262387644978,0.15841440290883654,0.169538297408643,0.1937250814454048,0.1934137765095158,0.19065965706429672,0.2075170305041856,0.20421398408261826,0.2050108795549775,0.21208660516289832,0.2320351145823834,0.2405366676350511,0.29717608325349104,0.35113471546781705,0.4288740159811234,0.5347732283790987,0.6246324565009318,0.523974460901087,0.22171422705606947,-0.08788767170232442,-0.4137119330966469,-0.38263907824242255,-0.13156877707394704,0.025992031636297992,0.13866832822842312,0.21313210343910866,0.2317661569751834,0.24760967070320705,0.23862712934994074,0.24239900119212635,0.2390953850169076,0.2155093033495701,0.2158417595924262,0.23350763898046814,0.20230352594155607,0.1973397330058509,0.19657157043304294,0.0,0.0,0.0,0.0,0.0,0.0,0.0,0.0,0.0,0.0,0.0,0.0,0.0,0.0,0.0,0.0,0.0,0.0,0.0,0.0,0.0,0.0,0.0,0.0,0.0,0.0,0.0,0.0,0.0,0.0,0.0,0.0,0.0,0.0,0.0,0.0,0.0,0.0,0.0,0.0,0.0,0.0,0.0,0.0,0.0,0.0,0.0,0.0,0.0,0.0,0.0,0.0,0.0,0.0,0.0,0.0,0.0,0.0,0.0,0.0,0.0,0.0,0.0,0.0,0.0,0.0,0.0,0.0,0.0,0.0,0.0,0.0,0.0,0.0,0.0,0.0,0.0,0.0,0.0,0.0,0.0,0.0,0.0,0.0,0.0,0.0,0.0,0.0,0.0,0.0,0.0,0.0,0.0,0.0,0.0,0.0,0.0,0.0,0.0,0.0,0.0,0.0,0.0,0.0,0.0,0.0,0.0,0.0,0.0,0.0,0.0,0.0,0.0,0.0,0.0,0.0,0.0,0.0,0.0,0.0,0.0,0.0,0.0,0.0,0.0,0.0,0.0,0.0,0.0,0.0,0.0,0.0,0.0,0.0,0.0,0.0,0.0,0.0,0.0,0.0,0.0,0.0,0.0,0.0,0.0,0.0,0.0,0.0,0.0,0.0,0.0,0.0,0.0,0.0,0.0,0.0,0.0,0.0,0.0,0.0,0
0.061612817873728236,0.1984894944665778,0.39800263867919183,0.5694819498787163,0.7388317451174923,0.9060475812162476,0.9912447563029032,0.8670398647607227,0.5334152827900205,0.2148669625146099,0.01715275521501277,-0.09645308268331483,-0.1518822501762492,-0.01746298021713841,0.03047279611007608,0.02646576056694321,0.002897616482542885,0.0007852391311067062,0.039557228613897134,0.03501852981852421,-0.008514241345509281,-0.03275399234913269,0.005475395710231704,0.02630006746058023,-0.015612642751250572,-0.031748315832463264,-0.009149961886302974,0.02412472977270476,0.0011600698436169301,-0.026224317831280698,0.013220619406346158,0.06985216568966,0.05732749588441855,0.01883299970487185,0.04720777980303005,0.07122006346076479,0.05202023294837894,0.030634878969938918,0.03513737571741457,0.07633033566047136,0.0721866746368827,0.04214375205171183,0.038020957403978935,0.07061977417265916,0.08813553974576871,0.058192673028850825,0.06283293387965029,0.10853887879544256,0.10248675095835452,0.06411120641753015,0.06681704050057569,0.08902038096556318,0.10050171721140727,0.07535874567209523,0.06108874660164317,0.11382392773429352,0.12778423622390453,0.1008127013921522,0.08256353928325963,0.12916694008340898,0.1585878127778104,0.12980811581825855,0.08816205745703147,0.11352441400164692,0.13465169615512765,0.10188810768331306,0.04761256969613162,0.07544475412309988,0.08607444439294967,0.0579087851762348,0.014689838209549276,0.027653549192312145,0.06441213908729472,0.05587764742521485,-0.004432252337733482,0.015164702249682124,0.041262718196241485,0.02420301344058873,-0.018749792269073955,-0.016360548487394842,0.005460503379253094,0.0013752415602049405,-0.037254439853413535,-0.03703126304411464,0.027951415470624637,0.02600945414364297,0.0003234832182846183,0.009185785370043914,0.06339446815024796,0.0809180722362838,0.04880725552483538,0.049100618335727375,0.09907173489784636,0.12532323906046253,0.09115731247847923,0.07429329182050454,0.0984794062563668,0.11838107929779748,0.08650441599100793,0.07624918931217894,0.10920291407168306,0.1205996810943991,0.07373777408098822,0.03337969895267416,0.06644641901029913,0.06931147124560466,0.041971711705694116,0.0038530844967126117,0.030510801646952326,0.052858709330541286,0.03635171826341834,-0.00822017769376233,0.033556484848518885,0.04941921300535099,0.04368195380778754,-0.00524750563104724,0.010567967501522607,0.0393128754630458,0.03564814587669948,-0.0025889688289430844,0.004473996136531778,0.04172140450207459,0.02279633736652853,-0.004811116531987484,-0.006563938847973762,0.03480473727223074,0.026462272763554874,-0.016482842038324955,-0.011998640985947134,0.026960060924641836,0.024833632582117342,-0.001108170980136543,-0.0076898060750346595,0.02667611557586459,0.02427171363210061,-0.01922093929875,0.0,0.0,0.0,0.0,0.0,0.0,0.0,0.0,0.0,0.0,0.0,0.0,0.0,0.0,0.0,0.0,0.0,0.0,0.0,0.0,0.0,0.0,0.0,0.0,0.0,0.0,0.0,0.0,0.0,0.0,0.0,0.0,0.0,0.0,0.0,0.0,0.0,0.0,0.0,0.0,0.0,0.0,0.0,0.0,0.0,0.0,0.0,0.0,0.0,0.0,0.0,0.0,0.0,0.0,0.0,0.0,0.0,0.0,0.0,0.0,0.0,0.0,0.0,0.0,0.0,0.0,0.0,0.0,0.0,0.0,0.0,0.0,0.0,0.0,0.0,0.0,0.0,0.0,0.0,0.0,0.0,0.0,0.0,0.0,0.0,0.0,0.0,0.0,0.0,0.0,0.0,0.0,0.0,0.0,0.0,0.0,0.0,0.0,0.0,0.0,0.0,0.0,0.0,0.0,0.0,0.0,0.0,0.0,0.0,0.0,0.0,0.0,0.0,0.0,0.0,0.0,0.0,0.0,0.0,0.0,0.0,0.0,0.0,0.0,0.0,0.0,0.0,0.0,0.0,0.0,0.0,0.0,0.0,0.0,0.0,0.0,0.0,0.0,0.0,0.0,0.0,0.0,0.0,0.0,0.0,0.0,0.0,0.0,0.0,0.0,0.0,0.0,0.0,0.0,0.0,0.0,0.0,0.0,0.0,0.0,0.0,0.0,0.0,0.0,0.32866297626633845,0.3555001751744629,0.3820869276283033,0.4429294126848712,0.512084769048856,0.585196181462771,0.6794925349301703,0.7603879628299727,0.6961460279964318,0.4392207079950453,0.0953391505238668,-0.18443834538432727,-0.4001697821867212,-0.39861898983499133,-0.14308838984989508,0.0167275987923716,0.13700745138851975,0.20268829933714053,0.24404193643783,0.2567979259528683,0.2755434801676497,0.27657622352874395,0.2707336198611393,0.27964588045114885,0.2644947329993035,0.26849589757930153,0.2700989897365158,0.23264050005741024,0.2187615677839791,0.22201973476407855,0.21006553621586155,0.20020139683404672,0.2075698649171828,0.1825477057021735,0.18561077606952034,0.18440449921618327,0.18759106558652694,0.1865611350545102,0.20508682056609392,0.21512747661783532,0.24908856218987194,0.2422272875429672,0.2593291816043945,0.26155491087753263,0.253240366589626,0.25599074074127404,0.2633452202408901,0.2861123205910936,0.2811285888561852,0.278629227867478,0.2894186001969425,0.3005525885170344,0.2796561937908101,0.2699118266154873,0.2778004561430072,0.2795781370073362,0.2817230997990016,0.2561709601220268,0.2698442719784379,0.2514994401321849,0.25510343209820163,0.2482689151546736,0.24178380243239966,0.2334818093066705,0.2406248768501631,0.21570899667184726,0.2062173042698104,0.20782003095342835,0.18596281198671386,0.14710793883480988,0.1387344684500844,0.1133323752317092,0.10110867837210633,0.07182270048413858,0.04920391034949377,0.028916678746004582,0.034689869322304674,0.021169766951996214,-0.0008680391599595079,-0.0012186310410379035,-0.001488833898722404,0.0004617295828279818,-0.010497030389234784,-0.01711281488907648,-0.030197066663328737,-0.0454478202617879,-0.05856024151291728,-0.0479545701543458,-0.043857308344486916,-0.031155055119327167,-0.016318503755447078,0.007137568611741128,0.015476370145840553,0.03461407289785081,0.05160790230412452,0.08373847568949122,0.10510963096949563,0.11141304805219072,0.10265753343445204,0.09828077116431276,0.10908462772818436,0.1113292611128034,0.11797432704607536,0.11607301178773605,0.12074265061623896,0.13198821596555765,0.1044787291181505,0.0943473766343639,0.09512086669472687,0.07441952292102101,0.06678680145384347,0.05279513462395983,0.049716663992435794,0.057552658596754534,0.0525570521377037,0.04552470764859686,0.058044355719930225,0.059892673674933485,0.051069613573899136,0.0553219147671268,0.06833132236649532,0.08146165273733233,0.06664694597195543,0.08217387759396565,0.0783874864678,0.0833501390541,0.08626494064327846,0.07633457977505284,0.07514370469176754,0.08916479948344737,0.0860111032887972,0.08726606113474154,0.09508325337629024,0.09002756335326044,0.11311052890688565,0.10387841252161432,0.0,0.0,0.0,0.0,0.0,0.0,0.0,0.0,0.0,0.0,0.0,0.0,0.0,0.0,0.0,0.0,0.0,0.0,0.0,0.0,0.0,0.0,0.0,0.0,0.0,0.0,0.0,0.0,0.0,0.0,0.0,0.0,0.0,0.0,0.0,0.0,0.0,0.0,0.0,0.0,0.0,0.0,0.0,0.0,0.0,0.0,0.0,0.0,0.0,0.0,0.0,0.0,0.0,0.0,0.0,0.0,0.0,0.0,0.0,0.0,0.0,0.0,0.0,0.0,0.0,0.0,0.0,0.0,0.0,0.0,0.0,0.0,0.0,0.0,0.0,0.0,0.0,0.0,0.0,0.0,0.0,0.0,0.0,0.0,0.0,0.0,0.0,0.0,0.0,0.0,0.0,0.0,0.0,0.0,0.0,0.0,0.0,0.0,0.0,0.0,0.0,0.0,0.0,0.0,0.0,0.0,0.0,0.0,0.0,0.0,0.0,0.0,0.0,0.0,0.0,0.0,0.0,0.0,0.0,0.0,0.0,0.0,0.0,0.0,0.0,0.0,0.0,0.0,0.0,0.0,0.0,0.0,0.0,0.0,0.0,0.0,0.0,0.0,0.0,0.0,0.0,0.0,0.0,0.0,0.0,0.0,0.0,0.0,0.0,0.0,0.0,0.0,0.0,0.0,0.0,0.0,0.0,0.0,0.0,0.0,0.0,0.0,0.0,0.0,0
-0.04633390179330042,0.017922370310681956,0.16609219896553445,0.405384058690931,0.6111445102805259,0.7642069542196993,0.9029411170596554,0.9266593983282544,0.7106949404359495,0.3557388311673343,0.06796747144432108,0.003208524429838163,-0.027946977280790614,0.008057087295087742,0.029700730526218917,-0.0013815391628071007,-0.03245134068612657,-0.013167635952837731,0.032491994528676245,0.006229519698797188,-0.024827531320488747,0.001653390962841379,0.061698121973724235,0.05221583891112663,0.0,0.0,0.0,0.0,0.0,0.0,0.0,0.0,0.0,0.0,0.0,0.0,0.0,0.0,0.0,0.0,0.0,0.0,0.0,0.0,0.0,0.0,0.0,0.0,0.0,0.0,0.0,0.0,0.0,0.0,0.0,0.0,0.0,0.0,0.0,0.0,0.0,0.0,0.0,0.0,0.0,0.0,0.0,0.0,0.0,0.0,0.0,0.0,0.0,0.0,0.0,0.0,0.0,0.0,0.0,0.0,0.0,0.0,0.0,0.0,0.0,0.0,0.0,0.0,0.0,0.0,0.0,0.0,0.0,0.0,0.0,0.0,0.0,0.0,0.0,0.0,0.0,0.0,0.0,0.0,0.0,0.0,0.0,0.0,0.0,0.0,0.0,0.0,0.0,0.0,0.0,0.0,0.0,0.0,0.0,0.0,0.0,0.0,0.0,0.0,0.0,0.0,0.0,0.0,0.0,0.0,0.0,0.0,0.0,0.0,0.0,0.0,0.0,0.0,0.0,0.0,0.0,0.0,0.0,0.0,0.0,0.0,0.0,0.0,0.0,0.0,0.0,0.0,0.0,0.0,0.0,0.0,0.0,0.0,0.0,0.0,0.0,0.0,0.0,0.0,0.0,0.0,0.0,0.0,0.0,0.0,0.0,0.0,0.0,0.0,0.0,0.0,0.0,0.0,0.0,0.0,0.0,0.0,0.0,0.0,0.0,0.0,0.0,0.0,0.0,0.0,0.0,0.0,0.0,0.0,0.0,0.0,0.0,0.0,0.0,0.0,0.0,0.0,0.0,0.0,0.0,0.0,0.0,0.0,0.0,0.0,0.0,0.0,0.0,0.0,0.0,0.0,0.0,0.0,0.0,0.0,0.0,0.0,0.0,0.0,0.0,0.0,0.0,0.0,0.0,0.0,0.0,0.0,0.0,0.0,0.0,0.0,0.0,0.0,0.0,0.0,0.0,0.0,0.0,0.0,0.0,0.0,0.0,0.0,0.0,0.0,0.0,0.0,0.0,0.0,0.0,0.0,0.0,0.0,0.0,0.0,0.0,0.0,0.0,0.0,0.0,0.0,0.0,0.0,0.0,0.0,0.0,0.0,0.0,0.0,0.0,0.0,0.0,0.0,0.0,0.0,0.0,0.0,0.0,0.0,0.0,0.0,0.0,0.0,0.0,0.0,0.0,0.0,0.0,0.0,0.0,0.0,0.0,0.0,0.0,0.0,0.21923318910037756,0.2320659882328803,0.2449691202336315,0.30347263697113946,0.3548089215798382,0.41573559282526223,0.5581504029755309,0.6022142302966602,0.3776750592673809,-0.03878228986295428,-0.3690870489609778,-0.2320733732049477,0.041409795865394936,0.2356143272575125,0.3337822449480166,0.3814887251126219,0.40992242956872404,0.4334877930018175,0.4498048807969723,0.4900562302768455,0.4943181085747632,0.5201405703608318,0.5435570745144171,0.5765605928297673,0.0,0.0,0.0,0.0,0.0,0.0,0.0,0.0,0.0,0.0,0.0,0.0,0.0,0.0,0.0,0.0,0.0,0.0,0.0,0.0,0.0,0.0,0.0,0.0,0.0,0.0,0.0,0.0,0.0,0.0,0.0,0.0,0.0,0.0,0.0,0.0,0.0,0.0,0.0,0.0,0.0,0.0,0.0,0.0,0.0,0.0,0.0,0.0,0.0,0.0,0.0,0.0,0.0,0.0,0.0,0.0,0.0,0.0,0.0,0.0,0.0,0.0,0.0,0.0,0.0,0.0,0.0,0.0,0.0,0.0,0.0,0.0,0.0,0.0,0.0,0.0,0.0,0.0,0.0,0.0,0.0,0.0,0.0,0.0,0.0,0.0,0.0,0.0,0.0,0.0,0.0,0.0,0.0,0.0,0.0,0.0,0.0,0.0,0.0,0.0,0.0,0.0,0.0,0.0,0.0,0.0,0.0,0.0,0.0,0.0,0.0,0.0,0.0,0.0,0.0,0.0,0.0,0.0,0.0,0.0,0.0,0.0,0.0,0.0,0.0,0.0,0.0,0.0,0.0,0.0,0.0,0.0,0.0,0.0,0.0,0.0,0.0,0.0,0.0,0.0,0.0,0.0,0.0,0.0,0.0,0.0,0.0,0.0,0.0,0.0,0.0,0.0,0.0,0.0,0.0,0.0,0.0,0.0,0.0,0.0,0.0,0.0,0.0,0.0,0.0,0.0,0.0,0.0,0.0,0.0,0.0,0.0,0.0,0.0,0.0,0.0,0.0,0.0,0.0,0.0,0.0,0.0,0.0,0.0,0.0,0.0,0.0,0.0,0.0,0.0,0.0,0.0,0.0,0.0,0.0,0.0,0.0,0.0,0.0,0.0,0.0,0.0,0.0,0.0,0.0,0.0,0.0,0.0,0.0,0.0,0.0,0.0,0.0,0.0,0.0,0.0,0.0,0.0,0.0,0.0,0.0,0.0,0.0,0.0,0.0,0.0,0.0,0.0,0.0,0.0,0.0,0.0,0.0,0.0,0.0,0.0,0.0,0.0,0.0,0.0,0.0,0.0,0.0,0.0,0.0,0.0,0.0,0.0,0.0,0.0,0.0,0.0,0.0,0.0,0.0,0.0,0.0,0.0,0.0,0.0,0.0,0.0,0.0,0.0,0.0,0.0,0.0,0.0,0.0,0.0,0.0,0.0,0.0,0.0,0.0,0.0,0
0.16482372402570744,0.2736208470255373,0.4711438581716395,0.6830707465594249,0.830282197082649,0.9031822322756204,0.8154515475438296,0.5407031784111621,0.18440716640879107,-0.06885250048898801,-0.11840435478509093,0.04292811659900427,-0.011610162498467202,0.0008778925100995193,0.0396314466181398,0.011145227123616408,-0.027045359638257903,-0.010212540334859202,0.028077583787128924,0.018297768054620717,-0.02756524839319123,-0.01361321946457532,0.014603739401043528,0.02831912570836553,-0.0180159557448821,-0.021307138803299853,0.03283510728056359,0.022146305684956475,-0.007814987704650134,-0.009092853493131459,0.032704730761917475,0.04326410440023967,-0.008574020420794951,-0.019710590358131348,0.019452767057117012,0.029809749876176638,0.0017807118807243168,-0.021469708890302332,0.029595333351479607,0.07826879530467949,0.08140812506779142,0.07978197783671248,0.1141586017667144,0.14858667038534706,0.11354964705059928,0.10016102634632056,0.14439182756093252,0.1791211768068872,0.16120222064932155,0.1242063857653214,0.16643609733279066,0.1967926944443046,0.17212616883559753,0.12360722975558165,0.1519324788166109,0.17798733150622004,0.16820845423201275,0.13698110828858076,0.14663919875188988,0.16841192462743812,0.14475806083054238,0.1044446128994582,0.11699492468223555,0.12246820878001705,0.10887257764296723,0.05222816017429547,0.050825727214618636,0.08547955064582137,0.0626819467445017,0.00879851644861788,0.012528877557133566,0.037903943334951916,0.053749512884952624,0.01210887610202283,-0.0007163883603076421,0.03684343309518937,0.0456642039929808,0.0041609854287424355,-0.02054484289912562,0.019488283973391085,0.03315037678181085,0.006050524538064477,-0.006675596503515189,0.02373544300577705,0.03014873694902298,-0.006621254644264961,-0.03143852101160893,0.008436103387478008,0.04587105869386535,0.0041448459031763795,-0.011256221014406329,0.0044602330574146495,0.044100281370021824,0.016558376432252747,-0.015832898312796297,0.01165643202727074,0.031896763205164824,0.0233104432738998,-0.011705596785503944,0.005964633173590169,0.04994936871749319,0.03154248531861141,-0.01569120499719685,0.0017498081130569714,0.031122596944717463,0.031671596250000066,-0.006191749696495297,0.006240288910323025,0.0473922149973835,0.03575164426061328,-0.011897600676662394,-0.002052700231506974,0.04371153187433148,0.03429372393134091,0.005658420455010365,0.010552314180484794,0.041785213521250274,0.04421738930557647,0.010658388259310748,0.00823923749800452,0.03935910633334628,0.04887774109246259,0.0056294337187709756,0.007911840790826075,0.04853372412799374,0.05077705299615015,0.019437678192747863,0.01445310417716662,0.04301630491438526,0.042793429109575655,-0.007792527513516439,-0.01044507113917709,0.042029011173495,0.05852748075868641,0.02226959028217805,0.012373269419638093,0.05041695471040818,0.04050278300955193,0.013798773870019621,0.0014727443308462926,0.039487390919562375,0.04632916498204497,0.017203496145049086,-0.009529881269214136,0.023668474973443647,0.044875303422088716,0.025321760624693115,-0.0038243652177315595,0.0413490207930329,0.06734128302241238,0.0,0.0,0.0,0.0,0.0,0.0,0.0,0.0,0.0,0.0,0.0,0.0,0.0,0.0,0.0,0.0,0.0,0.0,0.0,0.0,0.0,0.0,0.0,0.0,0.0,0.0,0.0,0.0,0.0,0.0,0.0,0.0,0.0,0.0,0.0,0.0,0.0,0.0,0.0,0.0,0.0,0.0,0.0,0.0,0.0,0.0,0.0,0.0,0.0,0.0,0.0,0.0,0.0,0.0,0.0,0.0,0.0,0.0,0.0,0.0,0.0,0.0,0.0,0.0,0.0,0.0,0.0,0.0,0.0,0.0,0.0,0.0,0.0,0.0,0.0,0.0,0.0,0.0,0.0,0.0,0.0,0.0,0.0,0.0,0.0,0.0,0.0,0.0,0.0,0.0,0.0,0.0,0.0,0.0,0.0,0.0,0.0,0.0,0.0,0.0,0.0,0.0,0.0,0.0,0.0,0.0,0.0,0.0,0.0,0.0,0.0,0.0,0.0,0.0,0.0,0.0,0.0,0.0,0.0,0.0,0.0,0.0,0.0,0.0,0.0,0.0,0.0,0.0,0.0,0.0,0.0,0.0,0.0,0.0,0.0,0.0,0.0,0.0,0.0,0.0,0.0,0.0,0.0,0.0,0.0,0.0,0.0,0.0,0.0,0.0,0.3183715881582385,0.35449383200949225,0.4045729753247705,0.4661691284061202,0.5200580590024358,0.6093475342877086,0.7028210196689844,0.6445902732741593,0.33870039515558764,-0.0902391073969735,-0.4385037706367281,-0.4640009702427606,-0.16913879663653733,0.03375064461048033,0.12553709166640398,0.1829890835934132,0.20615535605039625,0.21186604943909926,0.22654017034921706,0.2358386039400985,0.23740847387615224,0.2432805700758605,0.2391122787623312,0.22973956368528,0.21759971879184606,0.21471878629607907,0.2139419264839768,0.21290817452996974,0.21644791862240303,0.2150056369616552,0.21820451943796984,0.1949096188133071,0.18830659830368016,0.18883571327099824,0.18453880330299668,0.17544413501475567,0.16397652656852107,0.15495739314704599,0.16998964973872652,0.17073858051543594,0.1500357848361685,0.14866149319066127,0.1594457010660815,0.17761513488331304,0.1888058268700049,0.2218074575194129,0.25266432998964816,0.262214586883899,0.2888344892720782,0.2797949659862377,0.3166240591921906,0.33460248336880105,0.3457285455924702,0.3452165602389064,0.35465132969409496,0.35725634240230386,0.3602280559629748,0.33479902807610384,0.3457015107075157,0.328202472804052,0.3110686502111093,0.29189797262635103,0.2922615568160117,0.2833821009916355,0.26045558446880485,0.2282664666173265,0.2227650696644543,0.20557887302845868,0.16950140743763115,0.1265049696553564,0.0957534316615286,0.0820251874641001,0.05893098716849536,0.016863490442477404,0.018139289534341643,0.029175922727640358,0.009198414885931308,0.010933140399267292,-0.013587490464028813,-0.011637203971680672,-0.007207611297650586,-0.00990437263442989,-0.010152669521978464,-0.007966639549584984,-0.010551878526480363,-0.01552332846640921,-0.022892403195838344,-0.011091773654389842,0.003088476137701463,-0.013923003809577962,-0.016580928969607348,-0.009685651195231723,-0.0004334213922262919,-0.0104044157765963,0.005950509363788921,0.0006799907544501472,0.014539182292105478,-0.0028207866914072986,-0.013042312636417714,-0.001742266420342338,0.009501606481368649,0.00870162307330411,-0.0017451017008858353,0.011725668729703062,0.015549057967533074,0.009724770363274552,0.0014448552458548546,0.009888684526260858,0.015876035032286868,0.0050215826306690605,-0.0034954368154797182,-0.007278132239235755,0.012853039181098102,0.020936404142589404,0.004984967488932534,-0.0014363600357356772,-0.0055197547122145755,-0.012059782125917757,0.0029192074086261013,0.015444524432544925,-0.005648957832617298,0.01875737170644585,0.0023569381524580204,0.005089001533403008,0.0005837374100119482,0.020010677686382896,0.013025227147729504,0.020386711690803368,0.00613521636838752,0.011029900017539273,0.008700612046130525,0.013534208812631615,0.01594276076062986,0.01353069338621535,0.0062998267128566215,0.006239284316466625,-0.0010340583791802905,0.013251179194549552,0.0035447743651854163,0.013002985128104664,0.017652773001709192,0.017495776901297888,0.0005461762723933047,0.002767547905278933,0.007379032553346872,0.011984602579343443,-0.002594126237423863,0.011593680712443221,0.035369825727231914,0.025581310725003102,0.0,0.0,0.0,0.0,0.0,0.0,0.0,0.0,0.0,0.0,0.0,0.0,0.0,0.0,0.0,0.0,0.0,0.0,0.0,0.0,0.0,0.0,0.0,0.0,0.0,0.0,0.0,0.0,0.0,0.0,0.0,0.0,0.0,0.0,0.0,0.0,0.0,0.0,0.0,0.0,0.0,0.0,0.0,0.0,0.0,0.0,0.0,0.0,0.0,0.0,0.0,0.0,0.0,0.0,0.0,0.0,0.0,0.0,0.0,0.0,0.0,0.0,0.0,0.0,0.0,0.0,0.0,0.0,0.0,0.0,0.0,0.0,0.0,0.0,0.0,0.0,0.0,0.0,0.0,0.0,0.0,0.0,0.0,0.0,0.0,0.0,0.0,0.0,0.0,0.0,0.0,0.0,0.0,0.0,0.0,0.0,0.0,0.0,0.0,0.0,0.0,0.0,0.0,0.0,0.0,0.0,0.0,0.0,0.0,0.0,0.0,0.0,0.0,0.0,0.0,0.0,0.0,0.0,0.0,0.0,0.0,0.0,0.0,0.0,0.0,0.0,0.0,0.0,0.0,0.0,0.0,0.0,0.0,0.0,0.0,0.0,0.0,0.0,0.0,0.0,0.0,0.0,0.0,0.0,0.0,0.0,0.0,0.0,0.0,0.0,0
