-0.12864907756397562,-0.4205665436577783,-0.7466302946777916,-0.8400795097989228,-0.3006819417146674,0.16198233269446974,0.4680121453005826,0.6442259153468354,0.7494558412004868,0.7784986617295774,0.7901796068925825,0.8006318552415735,0.7779604556533571,0.8076588908564719,0.8044641181248005,0.7898294537205062,0.7318439929437934,0.726657358686879,0.6889908392413656,0.6829706458078906,0.6713351672142969,0.6168193774351977,0.6102193705086519,0.6035916399082758,0.5703337074673795,0.5211922161100315,0.5202711557331295,0.5356235527180301,0.5139557526337626,0.5300358996708755,0.4932129524529144,0.5049299345328492,0.4798667081541013,0.492781206834522,0.5063725476115498,0.5046814630731359,0.5144343128575869,0.5196667742828002,0.5737802107288866,0.59143687077453,0.6313686704290529,0.592223972593321,0.591424797754455,0.5969816490838832,0.6516063507269592,0.6592712254532367,0.6626818544680702,0.7045405226206874,0.7261618239324454,0.7969213064613699,0.8261102915322648,0.8724246720592299,0.8344756144808055,0.8616628567265979,0.8259089314130305,0.8125728574077122,0.7842810671584503,0.7196639898411747,0.7147405702374882,0.6894374992925318,0.6810703312596038,0.5828786368728142,0.5122114158083593,0.4476782368816963,0.4052382469001605,0.37950427482335536,0.3330710042348286,0.25521132051743817,0.2099007217969346,0.1437209931314574,0.12064530708654606,0.06057358129108216,0.054157765799787705,-0.010719247037717023,0.020626157546196625,-0.011946559336442586,0.014231013094853572,-0.050308592527263336,-0.0402077427411401,-0.05156899811153343,-0.07910672204904054,-0.04282610081152361,-0.07082958021958254,-0.09378280264118057,-0.06368876109070683,-0.05526999609144485,-0.0365226004516395,-0.05547771429195787,-0.03209853134674226,0.0016006078856509276,0.002936372539070062,0.03060980116292145,0.036601520342013937,-0.005763916931302781,-0.00043368379713579815,-0.0007629620193121665,0.003925346207942833,-0.013043727877161406,-0.014312934293505568,-0.03189204213959962,-0.03375722241555472,-0.0038896759698889296,0.00970036491536862,0.007027216254636402,0.036129324337739015,0.03832470303568451,0.061651582855594286,0.07410770471902299,0.10238671979511507,0.11982171007312364,0.1424334045217965,0.13288173435996375,0.14453825632975706,0.14006152507431174,0.10878947186616447,0.11476360576814115,0.13664857406952036,0.1691165098339615,0.13747060464847638,0.10041370112094583,0.11131193464209048,0.11147452138725338,0.1435944983907025,0.09028374938999617,0.05826627444394397,0.03687318518159961,0.06345948067787507,0.06332355849488444,0.052475836587662514,0.03625437656517801,0.041341057113763915,0.035721357142365816,0.01939666803946453,0.0030402423150282304,-0.029354863824999057,-0.008419291549696853,0.01782666967290998,0.04405168912058791,0.011564148296387406,-0.010263314815805332,0.03193382035474426,0.03677647333371277,0.0256138608528196,0.0037869561690074727,0.01932476338300848,0.01887189024217609,0.05579324515278161,0.05538916542236308,0.017663987490146898,0.04934216813226695,0.04370728123944957,0.05412324991568268,0.05391348076649682,0.011065089917035968,0.005621341071911652,0.010905045327550484,0.06960724390745174,0.04299424812923841,0.0377889350246041,0.0006333707298992869,0.011569929040217504,0.049256603165200884,0.07100724900829858,0.02879945632580683,0.002674936577058809,0.02998709831101165,0.03603291955506833,0.07950972500455858,0.06437008313024901,0.0653188005066566,0.05033996457514795,0.062121614281001415,0.06331123890762125,0.043236116451024015,0.033911367264125365,0.02466373660616464,0.052843978956775166,0.09177048710726593,0.08274527044423093,0.06845425692042634,0.03822276212088902,0.013391878544191438,0.009966487710958209,0.0012632452693272487,-0.018057163508455504,-0.021317940481549818,-0.003184651535128759,0.004327023601022892,-0.030798292260983663,-0.00717550134073624,0.0004947644634293738,-0.0024471471121437173,0.010683188651612259,0.03455430976792053,0.02114654192096712,-0.018863743471106857,-0.005432022489092129,-0.002584515489841838,0.00035735130984221384,-0.007271682234417118,-0.030800858189617083,-0.04354260862812223,-0.002798379948358055,0.03275014058047152,0.020429591127667943,0.024286843394564592,0.033664388836624495,0.05924867693164036,0.12239802856373405,0.17510221013986504,0.1640143562127126,0.20120334161214395,0.2386566251721431,0.2230246398458492,0.20767702258601053,0.2619903548145868,0.2632434644595014,0.2648025250134161,0.19730393687652456,0.2208316305942751,0.25001163644214136,0.274173158635358,0.2879801711951138,0.3181113964616254,0.3752360572818421,0.3793094482554069,0.3516693652202737,0.3403318067878391,0.3346147947171692,0.3558507682931162,0.3399941759003703,0.3030379846318311,0.31433366025088605,0.33651075604826397,0.0,0.0,0.0,0.0,0.0,0.0,0.0,0.0,0.0,0.0,0.0,0.0,0.0,0.0,0.0,0.0,0.0,0.0,0.0,0.0,0.0,0.0,0.0,0.0,0.0,0.0,0.0,0.0,0.0,0.0,0.0,0.0,0.0,0.0,0.0,0.0,0.0,0.0,0.0,0.0,0.0,0.0,0.0,0.0,0.0,0.0,0.0,0.0,0.0,0.0,0.0,0.0,0.0,0.0,0.0,0.0,0.0,0.0,0.0,0.0,0.0,0.0,0.0,0.0,0.0,0.0,-0.1897021982852043,-0.043193397870743236,0.3206747134342629,-0.6348964939265611,-0.3219638979054574,-0.1438669196620263,0.12357166477613865,0.28833319733614604,0.4625515343425749,0.47555003765477,0.4874829879508826,0.4984216922347731,0.4870909406388152,0.458893130507605,0.4512443429158558,0.4055100069181668,0.40712583167911465,0.3547648035684553,0.3658746877563922,0.3391246611595041,0.3332626672450337,0.31632261616659274,0.2830168510851405,0.2707442924616492,0.25820622716733144,0.229438608216074,0.18982017704717472,0.1714086272275738,0.17424458403850582,0.17702373626152249,0.13176080213457145,0.13987817097274782,0.1480529972271704,0.12430581541465,0.1060246780207888,0.130597016002112,0.14469739250143002,0.15903195604611395,0.15762603235588846,0.17786435063206546,0.1824265738478811,0.1873516742961859,0.1980056724086877,0.22508967172285965,0.22060756724230848,0.2646266052615642,0.31448447216217523,0.3435255907850742,0.31975679168469606,0.34458368439094017,0.37533774331805575,0.3960288192825536,0.4226810055970484,0.4126201969245542,0.4245545519416553,0.4745020073108573,0.482430019367445,0.4856961089476749,0.4896392655528861,0.4729159508831891,0.44619629762718777,0.4414921533502779,0.4427889558591369,0.4233978957714015,0.431332227857844,0.35452249397565555,0.3316900129353145,0.3254656754183174,0.2931426937919589,0.2667169311930716,0.2515026857243349,0.21012476299067864,0.15856690972497145,0.1554999809493609,0.13686558197630105,0.13998891803693914,0.10614615248005156,0.0619890665360121,0.0341689107044324,0.060008665267864775,0.032758603332616085,0.005749293885769218,-0.015713036655840427,-0.004978111165299857,-0.015434457739264947,-0.025765853455916476,-0.0093185892558133,-0.008804766557213605,-0.008239383006892139,-0.01298067925534767,-0.04439417280410358,-0.0011156911150089048,-0.0005536586331027347,-0.005371817752802769,0.011094102000769957,-0.020539476129280452,-0.01491160831039444,-0.02005989606319867,-0.025324305800026297,-0.020042898243084275,0.006448671694471244,0.006120434669313109,0.016318706920943556,0.031701615173597535,0.0362551648297019,-0.018050916401212792,-0.008494446433064424,-0.03646436263645589,-0.011252080300656223,-0.034242265709406604,-0.03606588054644395,0.03664130692732701,0.061158299193141065,0.042828392264980066,0.05102681473497076,0.07508828309122748,0.08833919909538061,0.053433549339371667,0.02907323627360796,0.03660775613179285,0.03335422141180746,0.05666985953480338,0.02651929413981681,0.01761144157655177,0.024614787636190388,0.04219773005270689,0.027676404437180068,0.0290790731023631,-0.012286537303747914,0.0369838695804003,0.011478644945747398,0.012586948270722166,0.04031350422193058,0.025294716297459555,0.02089524330301996,0.005775339472826684,0.027963412798655718,0.012759385520440676,0.02419955652860638,0.03027180336218862,0.030980001747260937,0.05834399523570043,0.032327055332503685,0.038308777610930114,0.03360411926968064,0.08224824324630294,0.0561794293488256,0.046112360573667285,0.06805716092218561,0.052647406007747415,0.05324478803305989,0.059178497594159336,0.0917935782479622,0.039034281055478376,0.06631743104493698,0.0562506052739145,0.06752970472934465,0.07881005118308347,0.06341060889432662,0.06401820630579147,0.06462313630164668,0.07589547099571302,0.033800681288215444,0.03438445452612598,0.008275693264771344,0.02483964460476069,0.025377037528955152,-0.04347550331387049,-0.010968645866385927,-0.0051660402901036176,0.00595030119892367,-0.009633381211170269,0.028125540063114043,0.033853991988251966,0.04490721777816371,0.02393601327889501,0.0029592080341803444,-0.002012547684722531,0.009023322004993692,0.009389484857482651,0.004424682695108411,0.015475669985221,0.021201020158663042,-0.02108485018861985,0.0006769455941826238,-0.004221457618547386,-0.014431511190284168,-0.02461232503843849,-0.002741538766174211,-0.012842811360237731,0.0037889155139522006,0.009811562703595064,0.015907210888543032,0.011413812234287873,0.012349338690950435,0.04540374486786397,0.04655458593734359,0.06383560719985155,0.049231963628459115,-0.002583350068704678,0.009782811939405674,0.02764324497799028,0.08835905301265054,0.07988264559693431,0.07159066586977343,0.010130900681726694,0.0662636132237666,0.1386120029613884,0.12579893804202116,0.0705191298847711,0.10617899860437864,0.13139973769791832,0.08749016868056536,0.16655138968323338,0.2298508298095144,0.15999916486259916,0.12775099405491322,0.15445156040722904,0.13871701131020375,0.1285712780925212,0.09199730053575736,0.10369777284783263,0.12631851210329306,0.133176856616094,0.09758951310762992,0.05690476078465324,0.13918272859667535,0.17900216844188288,0.19236581168546849,0.24863569332315,0.24642025086921104,0.24974329444770754,0.2212430246628432,0.2462848502774941,0.0,0.0,0.0,0.0,0.0,0.0,0.0,0.0,0.0,0.0,0.0,0.0,0.0,0.0,0.0,0.0,0.0,0.0,0.0,0.0,0.0,0.0,0.0,0.0,0.0,0.0,0.0,0.0,0.0,0.0,0.0,0.0,0.0,0.0,0.0,0.0,0.0,0.0,0.0,0.0,0.0,0.0,0.0,0.0,0.0,0.0,0.0,0.0,0.0,0.0,0.0,0.0,0.0,0.0,0.0,0.0,0.0,0.0,0.0,0.0,0.0,0.0,0.0,0.0,0.0,0.0,0
0.400246966191125,0.43151899701186336,0.5889897361163376,0.6665772397449499,0.4976457408438434,0.4152450137622991,0.5288773219125052,0.4352042709741049,0.07277720991178252,-0.370010251186464,-0.7573636949912486,-0.5940282225701501,-0.2437911903582312,0.10494590746579603,0.33831974445576585,0.5177958990111808,0.6084070716664571,0.6190157313703181,0.6461460198237303,0.6416722042494591,0.6495132716671531,0.6434532289053582,0.6148057781837818,0.5855640546316478,0.577718119349289,0.5431233337866817,0.5256801213301885,0.4903879464406609,0.4855251242265658,0.4454033886327541,0.4533620611173802,0.4305585137645903,0.3945790381145875,0.3542413014362462,0.3490436482789112,0.3132849942402963,0.2952266389237577,0.27737977941697833,0.24663737241382636,0.2775557024968756,0.2868933344441526,0.3185212816971953,0.3330276441826465,0.31291510791764104,0.3283494085686958,0.3311473522635241,0.3695552896491595,0.3822370221513709,0.3648365680314203,0.36121162749864094,0.3713857191857243,0.3866140841884639,0.385000399455917,0.3665625875636205,0.3882987106970558,0.4502229336168248,0.4602995290629926,0.4360714121454598,0.4432947896096636,0.4512925015776169,0.4556845861336654,0.4608552963784074,0.436120721074469,0.4077767093199368,0.4152666368274322,0.3884509469415261,0.4325174362488116,0.4247237006333792,0.4395707816642448,0.4025275821529964,0.4231567081112795,0.4050066731619619,0.4094203617620567,0.3530918539356657,0.32804261218028835,0.2816455541346093,0.2489366720118554,0.2123517209249209,0.17185815426086104,0.14495530660564654,0.12284223881819616,0.08795081550213496,0.07969435166183593,0.04105453628123135,0.046509732053899334,0.008358374043671554,0.001078387122784507,-0.03234941780979983,-0.02621363454441105,-0.019997441421810185,-0.02688211205119571,-0.033747605848550064,-0.009938385471690415,-0.02122689382224083,-0.02818697191008207,-0.01330662288708236,-0.01605323675472033,-0.018910874773358663,-0.021895016103389075,-0.007486400414579057,-0.01952898770148833,-0.0010516047448939148,-0.013428588035004985,-0.008453280675076308,-0.01681599336134188,-0.003457697637669299,0.02723311081702192,0.03141914315066662,0.0047120960000668274,-0.0002944264817492897,-0.0011386155323159875,0.015324015757009497,0.03155541228768435,0.008101263644186318,-0.033127598014746434,-0.013238316424752004,-0.002364903338582013,-0.00927481251760568,0.0010970843364266232,-0.032614389637409515,-0.04027734460405575,-0.03065503567028088,-0.03880630603139711,-0.03842178630300575,-0.02510459919853589,-0.016370396058618446,0.014099914106841175,0.022495205645480597,0.05266899719296997,0.0301273299456872,0.033789232633329294,0.04614239708258035,0.07159052487086204,0.07070472946980881,0.06103783101037286,0.03384288166357802,0.07242057893827612,0.040909664159903616,0.053292953695670366,0.03945715831049944,0.038869615789049065,0.042781873497004116,0.0775111703670117,0.09485952385288897,0.09046092124640244,0.08186505423860012,0.06470498351902282,0.08721218932450184,0.0924201706218272,0.07596081918940414,0.06853145061982567,0.07891282200468819,0.10711887629957458,0.10494756876277613,0.10747779810642533,0.08842263795348868,0.11792581080430528,0.1477832320827606,0.16923934923810713,0.14285522062777622,0.1256222446788159,0.17453110554217113,0.14494301524607678,0.14206275030790802,0.1308308188697991,0.13755231911145474,0.14908257340406392,0.1522762163572199,0.16466978734331,0.1731164141779785,0.16446840132793294,0.1518766021140907,0.17040722621226342,0.17622748060640933,0.1912522563350575,0.14534761277235114,0.15247455408511754,0.19947952126009588,0.22499259977807312,0.21585847085541154,0.22028599109679656,0.2251176374632369,0.23911096418268665,0.257872692676772,0.2989245275091993,0.2921221690926077,0.34703248853158497,0.3715920523083868,0.3876998209667095,0.4172528970899879,0.4076314371930895,0.4201776407502801,0.4329501900304165,0.4809877310260935,0.4853626157550723,0.4898753919991024,0.4944918233330531,0.5210914026517339,0.5477187929970365,0.5918651736082592,0.5702045631249926,0.5791206861755445,0.6054135228809032,0.6446466292373866,0.6529314125192761,0.6477413571190289,0.6465466827720396,0.6536646632887758,0.6427266895706296,0.5785944127169158,0.5269406921992443,0.5665852017353009,0.5615664291096834,0.6389141735437882,0.7766254112879423,0.8080471446220587,0.7067860363591596,0.8234029826632359,1.0,0.8638964365906238,0.4982631575518137,-0.061948884615088726,-0.5626294417555223,-0.7365126733527468,-0.6494052052859461,-0.4503251737785587,-0.08221694180865281,0.2402572926956432,0.4514731575545986,0.6085356800046631,0.6984158580864163,0.7036984114226575,0.7428448754776801,0.7852832520847948,0.7697551786772742,0.7138966095809727,0.7230043651334538,0.7095093236565067,0.6954196419345986,0.6895902219874374,0.6658066028214804,0.6372999971464952,0.6172982886392355,0.6234094102158483,0.5943399649921951,0.6002905112184901,0.5711950917849579,0.0,0.0,0.0,0.0,0.0,0.0,0.0,0.0,0.0,0.0,0.0,0.0,0.0,0.0,0.0,0.0,0.0,0.0,0.0,0.0,0.0,0.0,0.0,0.0,0.0,0.0,0.0,0.0,0.0,0.0,0.0,0.0,0.0,0.0,0.0,0.0,0.0,0.0,0.0,0.0,0.0,0.0,0.0,0.0,0.0,0.0,0.0,0.0,0.0,0.0,0.0,0.0,0.0,0.3396461969698587,0.2419677068043073,0.11741867262650392,-0.07787989809515898,-0.03276549009586086,0.033560286014540336,-0.04111900304031197,0.14641745204183387,0.6136696218030661,0.909130520584536,0.6601883376881301,-0.5057732832368699,-0.3095163771578831,-0.1755891303566431,-0.020677230712283255,0.1991011932090252,0.2953184829908817,0.3206239503768271,0.3276654305179873,0.3647059197063561,0.3528929394647504,0.3624022029253132,0.3494435295316064,0.2921411054130775,0.2957312059235504,0.2725862731785961,0.25342463560101913,0.2558135514641177,0.2315704758273091,0.20702659225171585,0.17344604053104007,0.1746907541985841,0.1538073775517042,0.14150639622158862,0.12028193366935595,0.09454358452104412,0.04678416329612207,0.06031043380187932,0.06063243930710342,0.0127090431828345,0.02176234929808051,-0.021764153252993624,-0.0038820614795822103,-0.007846513068427,0.01020155953159516,0.006457254502746061,0.04231327676461325,0.03889875529034724,0.0313067367105984,0.03709713020472005,0.0782129241577621,0.06263279224523971,0.07804768239263304,0.0850343929194369,0.09238492503991562,0.1395735049720298,0.14334329630647089,0.19138295860223106,0.1785180621690945,0.20558530015291948,0.2243904579703283,0.2393371219840044,0.2416780493862006,0.26649715807736163,0.2480627355619417,0.2652885162581497,0.2787396293072528,0.31911164923801943,0.3425837493116089,0.3579323361034965,0.3607823960522701,0.3905894833286389,0.4122923406218694,0.3820612861950514,0.39632812050973604,0.4024927185821188,0.40055180266035456,0.38611684678962543,0.3810967366923806,0.3635660701130341,0.329130482269837,0.3347590909020119,0.3059222959149658,0.2426038309881137,0.22368414349823376,0.21407833857906533,0.2181495245980519,0.1745112034402417,0.13135667972756368,0.0886627923927481,0.09023808097892808,0.06592651249139105,0.046386024750762936,0.02282510429068604,0.03028436310848035,0.016139584288341596,0.01981435001963301,0.0631992188362759,0.02353787080089669,0.010385164167175366,0.028098181754314423,0.05473454001941469,0.04205230049238744,-0.005591920096994495,-0.009326707710998193,-0.0042442463033653096,-0.003519655093704257,-0.002794707140704041,0.00228915886418022,0.0073242982479114795,-0.014013123805242344,-0.022298442641802408,-0.021938019755329774,-0.02171933402671471,-0.008511601528069934,-0.017397568127957234,-0.02209387074147121,-0.01823167221163499,0.002943199275628909,-0.015561888547444062,-0.008008981961970817,0.01682634356088131,-0.011196026948090637,-3.6570232742094955e-05,-0.024217657510813985,-0.035531055823230975,-0.047131531884776236,-0.0283381195661282,-0.02736361855127872,-0.026669600312158537,-0.03501445121321692,0.00021127634444866307,0.008889755629961962,-0.00458183357447265,-0.01827341297790833,-0.005871233275828441,0.006341361937954944,0.04029717996997255,0.008348102935441745,0.011324948257026185,0.005411712217330051,-0.00937530813198236,0.010812514595993446,0.06160910530925301,0.0685165630231364,0.05346786497382031,0.0822280032084678,0.07153168729599202,0.11344264524049595,0.08086246041863884,0.06147070022348064,0.08158122738445718,0.08860935396866038,0.08695204874898714,0.09415554466970487,0.1102326969573166,0.07383058970927993,0.12084136413167418,0.11977941217544127,0.1144879511599081,0.11812694933167955,0.11317315232194355,0.1171686010421826,0.10820564888369594,0.12574136374609954,0.14786697214944305,0.13075689321005635,0.14016570019391236,0.13226641909801407,0.16404579709660694,0.14345990489291566,0.11872753662134387,0.16436618355305185,0.14888066357064955,0.15117028821607625,0.12301978818592893,0.13017726754924708,0.13319255753100573,0.13644719586364346,0.09172322544424903,0.1129817292909974,0.1125544877944494,0.12550331713916335,0.11237446316779612,0.14329443769092226,0.1525088827260159,0.16631067434534566,0.197842218858626,0.22517920510715855,0.2395460399392906,0.2496989472648644,0.2600097175241426,0.3055315428383125,0.29420247883794937,0.3136717188104999,0.32885638432837216,0.35288762173856225,0.38136199014862376,0.37480839831296014,0.3814185629636271,0.41869967661502705,0.41210907416176495,0.38791641900580537,0.4293713786156839,0.4312425440844948,0.459242553484264,0.430051873535373,0.4575942830175415,0.4716955093971556,0.5161431213930698,0.5163749642833281,0.5424730820299112,0.5067204501022938,0.4397446965678037,0.3020391440614361,0.15929257423982662,0.1692402090908736,0.1214246720316724,0.11221424203488267,0.4220724920037696,0.858072973917332,1.1527721218226459,0.7406620491240684,-0.23806994059445066,-0.626329555523013,-0.3891082364886813,-0.2321047629659879,-0.0982979304948529,0.05182257237976466,0.24024345245878245,0.3136217278550508,0.35969118113006515,0.39166901916721947,0.4315371218727623,0.4179939317596232,0.4212328058365272,0.3843311747005148,0.40816084940228375,0.3919628753251706,0.3840062721871905,0.3668095638012794,0.3448055326459131,0.3224251271517482,0.3216305146792982,0.3161666573302592,0.2797769090537541,0.2694845220138409,0.0,0.0,0.0,0.0,0.0,0.0,0.0,0.0,0.0,0.0,0.0,0.0,0.0,0.0,0.0,0.0,0.0,0.0,0.0,0.0,0.0,0.0,0.0,0.0,0.0,0.0,0.0,0.0,0.0,0.0,0.0,0.0,0.0,0.0,0.0,0.0,0.0,0.0,0.0,0.0,0.0,0.0,0.0,0.0,0.0,0.0,0.0,0.0,0.0,0.0,0.0,0.0,0.0,0
0.5343664947653783,0.34556621513339897,0.0569072197072345,-0.025767612545454056,-0.10470276557594134,-0.4203833888389745,-0.792610437333255,-0.8171495509936476,-0.2208103177977499,0.2644277505546997,0.540349141843178,0.6507828715788779,0.7215047822987093,0.7744847261814168,0.7934458344551685,0.7948871774330717,0.7515974428543004,0.7347007785478517,0.6841983283212276,0.6766701104304128,0.6739633818597549,0.6324587143249538,0.6232626500047959,0.6136758323406891,0.570995788460792,0.5226132982131468,0.4795263807125679,0.4581937439254736,0.4313652828416185,0.4318849225810829,0.4215715065022973,0.3622417185390786,0.3249761731296124,0.3590004658311109,0.3496395097770699,0.3625053863957916,0.3430157867199387,0.3349260237809525,0.3273566763503901,0.3585963658325446,0.3576660384864272,0.36285088595112,0.3632645942726575,0.35348233716073946,0.3827104911830447,0.4072775328879502,0.4599962521247078,0.4480214582387189,0.4751845296455453,0.5087320567010816,0.5213715557566696,0.5240511129300326,0.53317950939921,0.505066584987631,0.5216754577373639,0.5775538896680309,0.5907608075686358,0.6323247041653943,0.6312252685100137,0.6420949721468663,0.6594668093949363,0.628700846835492,0.6590529112586055,0.6467069111444091,0.6353526114970439,0.6358967322775254,0.6046097975028613,0.6015618881502033,0.5720907218677204,0.5489438391836611,0.5484760144183793,0.5214796541558933,0.511620555207764,0.4423692647891909,0.4120194333916387,0.3932065555440625,0.374953971432535,0.3025766398655915,0.2470435889980953,0.19190950341219,0.16443424781683474,0.12631710435633114,0.09388955218469193,0.050702627361837685,0.024013311844688228,-0.013554685103923731,-0.007428245516299445,-0.0286889078458408,-0.011834956910249871,-0.05526100962383402,-0.060681689528573286,-0.04999901256862383,-0.05603583376382626,-0.09522035247354202,-0.10748921779959483,-0.06554984441889312,-0.07868198348503036,-0.043090384110673764,-0.06804109542576522,-0.0388006943318603,0.0009349505487951787,0.01840026049610712,0.024536067459988545,0.0575996209795252,0.05750861338775514,0.046129977791036496,0.05625696358885076,0.06058626843174472,0.05366751635782746,0.01366012271958066,0.04437917864808962,0.047497536004310184,0.05580707078758532,0.05292970424672274,0.05526689010374634,0.08468311935025379,0.0920196817081567,0.08275046266472001,0.08420209528118028,0.04175127009503473,0.03735680458568014,0.0601011748685469,0.011653839585522194,0.01767933551451466,0.012626574030909077,0.023820510721027817,0.040342924611657685,0.05127547562703173,0.05116292389485511,0.018159867411169574,0.023296780965012403,0.05019121785656338,0.03875419955733743,0.03816253494466012,0.010180008435338679,0.020372950077310874,-0.002274908933903473,0.018729212521030512,0.0014425560530409215,0.005968119497463886,0.03231257237780985,0.03131283711413616,0.03029190141696844,-0.0035237246663987407,0.0008950538956275342,-0.00015167339151181666,-0.017584009989075357,-0.0076890257683990704,-0.02509155464558039,-0.031539567471653075,-0.010631859072339291,0.021255960476978274,0.025896083455148437,0.030620218878358037,-0.0082629786528589,-0.003325761604782352,0.001741156504999529,0.034270303041486525,0.006864856383900187,-0.00397311889720282,0.034551992099692085,0.0568967471966843,0.11771017365400292,0.12959516437767038,0.1417365716752162,0.15961218453358758,0.1395293659940181,0.1798405309072892,0.12758550824498086,0.09750502176267473,0.09507311892651038,0.08752024625085357,0.09124609214733033,0.12811320934443055,0.09432775022399756,0.0609208879808687,0.09892332417113016,0.11546639820357725,0.1105570874779997,0.11151830165267136,0.12381918992804855,0.13107513624069908,0.12782750926743122,0.09769041847318173,0.1007635610386715,0.12612322075729332,0.11367546034177972,0.13444495792303973,0.1720429925651599,0.17183705768077215,0.1611433152389707,0.15088716226927595,0.2230161150198676,0.2409448585793124,0.24291262433464236,0.2562308351124065,0.26996658574936666,0.31142880335477435,0.3259755364335267,0.3026696916912641,0.3289119804816554,0.3555190528575343,0.3824756315746877,0.3988380579574472,0.37727085519770204,0.4106291944951416,0.42786730315232907,0.4617400917696594,0.4958306143481572,0.5137196161883871,0.526301873028318,0.5390062900897419,0.5791123487574659,0.6192638162038954,0.6594180736301678,0.6612862924916741,0.728622197023907,0.7684973359794758,0.7644658418533351,0.8257339487699445,0.7719490668655179,0.7887957061188916,0.8270325342854808,0.8428775770602649,0.8635676499107873,0.8617023347357546,0.8754365186127644,0.8008749302372693,0.7635766016821193,0.7962204280378973,0.773045730887422,0.0,0.0,0.0,0.0,0.0,0.0,0.0,0.0,0.0,0.0,0.0,0.0,0.0,0.0,0.0,0.0,0.0,0.0,0.0,0.0,0.0,0.0,0.0,0.0,0.0,0.0,0.0,0.0,0.0,0.0,0.0,0.0,0.0,0.0,0.0,0.0,0.0,0.0,0.0,0.0,0.0,0.0,0.0,0.0,0.0,0.0,0.0,0.0,0.0,0.0,0.0,0.0,0.0,0.0,0.0,0.0,0.0,0.0,0.0,0.0,0.0,0.0,0.0,0.0,0.0,0.0,0.0,0.0,0.0,0.27161958302098754,0.018470936865571875,0.015604451376672344,-0.07031347565859848,-0.2557450132258737,-0.021742062557286727,0.25468625632370223,-0.6666688141694385,-0.3601417180127593,-0.1369020776219626,0.09051998908278752,0.32219453918918084,0.4379985349868713,0.454389875745192,0.4369939880036564,0.4077276110076392,0.4212851105411449,0.3520698504529869,0.3804279955797473,0.34797923148686416,0.2875569087331236,0.3084788648344845,0.2960661208804661,0.25036749584625884,0.2479165552297791,0.2286630647390882,0.18172526776232675,0.1945596988980218,0.14155320931265586,0.1320136598523026,0.0894959383817587,0.09052672640418197,0.07504970999066272,0.0758842551862746,0.0657530316884959,0.0446948393640041,0.02913805506860335,0.030047530265805988,0.041998064974563945,-0.0005320121228675392,0.039077588634957985,0.03520871538207741,0.03706868224362517,0.05562151387449368,0.06905123807759403,0.08285811413874296,0.10800535800566187,0.08989614831836135,0.18153859657767293,0.1917523439637001,0.23530103137688502,0.2466583776588142,0.30234277501638823,0.3040457209855785,0.3173562589313321,0.2931325717099963,0.3133505014309033,0.3124752727519621,0.3560897896128547,0.36772954370642896,0.4129740961470553,0.4754516406299607,0.538788305979891,0.5592913341729147,0.5533615943426148,0.5701769706744746,0.6042795613650556,0.6174288022174952,0.6260141268180754,0.6081787681824017,0.6349389618630603,0.6188721468940416,0.6036718336488072,0.5947853247134189,0.5812669985604864,0.5740214674083743,0.5402440217956958,0.4689802898261063,0.4585392367450534,0.4433284253536849,0.4123861449379153,0.38752827965010267,0.3140824248585504,0.26303018240634884,0.2452552626254195,0.22793364535201094,0.2110198956546294,0.18354083509736424,0.12905892822673146,0.06391553339364192,0.09186419434388587,0.07627285084940548,0.02801813514973709,0.06724233648206339,0.02453260233385508,-0.04006557545910845,-0.022800412379299237,-0.05483830015760687,-0.03788478392575387,-0.043002558637893776,-0.05383788950418671,-0.09773937183648247,-0.04907803264046739,-0.03899080383196952,0.0035322160557998885,-0.025321028763047232,0.02194927649689205,-0.00763625337647341,-0.004818621273055903,-0.029700464099642908,-0.005801413041625258,0.0013158723892248328,-0.04659420659415077,-0.03480480165151144,-0.034336903208220984,-0.05064857221634608,0.02007143073975201,0.024863966539606232,0.034765174347491934,0.08256795558118657,0.059019187962125276,0.06793411117767116,0.0546919141944919,0.04662097508012461,0.03826958693396528,0.04057571550481959,0.03169732368498838,0.011645379160575094,0.007747200721539855,0.02001353934047187,0.042991805335861735,0.07122930895850331,0.06103003207349862,0.0615737330070203,0.029163732327465157,0.05122228876884563,0.034882551949376665,0.034786567164395064,0.029089978443147507,0.04511797314490011,0.05009927207998141,0.03311557814123438,0.04880796674228189,0.058941215111240675,0.052596366026868895,0.029780771398039224,0.05059784125083944,0.03310498683702972,0.015552008617254497,-0.002054571899441165,-0.01970831096405531,-0.010086060052780432,-0.005959119451312799,-0.00731801976107338,0.007700482205244769,-0.010062600088409472,0.01588965243568732,0.030935868767986312,-0.003155495795038423,-0.009886800356261079,-0.01656284069026085,-0.017707661817012933,0.014009472385753166,0.0567512630053253,0.044973925736869216,0.09342235581637147,0.07645593921400883,0.12520878493864526,0.12496603340517227,0.14130116228169287,0.1359842879623373,0.0981013299258997,0.13146686800972984,0.1158996129026318,0.11150658125620548,0.12922449296113114,0.09257667968566227,0.10537479027272338,0.09660434930279978,0.10997969476242092,0.13458166243541952,0.1376373305347744,0.1246162177918173,0.13923026817789258,0.13777797189373514,0.09294702874302416,0.0921537899195748,0.12993800927444307,0.15166926262688016,0.1737394010413263,0.14151659230067307,0.14241398536127767,0.19282109666130032,0.19439739028897896,0.18538391417944394,0.18216753660849375,0.22298740660473645,0.2313524220791013,0.2236464986130999,0.2435689046166089,0.2474049595774911,0.2351451804838465,0.2614118664799276,0.21692708344123332,0.2655766860886818,0.2489106313401671,0.2707160402987142,0.2490265242989603,0.26031009672009703,0.2389876759382237,0.2396715209770465,0.26780297865903674,0.2741891782681105,0.2642689292542404,0.29264938738436336,0.2882804429645842,0.35493618443311165,0.4270268993649935,0.4662776102448307,0.4890442236036777,0.5226069184207275,0.5505370131092945,0.5564032130481016,0.5510879805212808,0.578250807305469,0.5613557875393091,0.5932264835683538,0.6301011030068422,0.63367818925469,0.6585292678139136,0.6608832612698723,0.0,0.0,0.0,0.0,0.0,0.0,0.0,0.0,0.0,0.0,0.0,0.0,0.0,0.0,0.0,0.0,0.0,0.0,0.0,0.0,0.0,0.0,0.0,0.0,0.0,0.0,0.0,0.0,0.0,0.0,0.0,0.0,0.0,0.0,0.0,0.0,0.0,0.0,0.0,0.0,0.0,0.0,0.0,0.0,0.0,0.0,0.0,0.0,0.0,0.0,0.0,0.0,0.0,0.0,0.0,0.0,0.0,0.0,0.0,0.0,0.0,0.0,0.0,0.0,0.0,0.0,0.0,0.0,0.0,0
0.2499486294960361,0.0959079414290813,-0.1987060879111936,-0.4745165181395346,-0.5355893974797461,-0.24573536941610094,0.039681814626854536,0.22441033684667344,0.3251342325434781,0.3884312521305525,0.4442692774806591,0.46614622255447796,0.4873474542959951,0.4946529288838772,0.4781618143333922,0.4711522368554964,0.4902916889827159,0.4791690388612112,0.4710552146732374,0.4626806144432651,0.450773280919691,0.425415646300096,0.3932961317850152,0.3577793829228802,0.3454796187985665,0.33650618956582884,0.3242533122758153,0.3054351700225977,0.2800859732075583,0.25820335077784445,0.2564268283984812,0.2614998035528928,0.250199445868746,0.2424830489350238,0.2284118181786333,0.20801069233285255,0.2211632509583306,0.22803246778933065,0.2153533993348356,0.20307644768020808,0.20782928956994207,0.2030571549059593,0.2286372059211704,0.23143942949429985,0.2413738836648387,0.2484896863886681,0.269407937343226,0.2775670622971841,0.2862639228659895,0.2988290471081623,0.2787317488761462,0.2890893050933048,0.3033330875297172,0.2948930225089374,0.31027378831426194,0.30629407726933555,0.29956070465855394,0.3299304943130298,0.3309660178964533,0.3325560060623267,0.3446576431908319,0.3473316137172736,0.3571750131013309,0.33099352581492114,0.3219188590971798,0.2967182022989451,0.2686602152109658,0.2443687768852358,0.2171798287771851,0.18374973907223147,0.17395027579536693,0.17114920818868246,0.17532167861224918,0.14990383936750712,0.12808558619881158,0.10319628244485933,0.08849454245964715,0.08063022174640051,0.08621767905724799,0.038794601368028925,0.018050781816548508,0.0040263623514496605,1.2934684569172169e-05,-0.010627821047299016,-0.031247630476547127,-0.035302372427721086,-0.012853200069830923,-0.0004609928807115998,-0.024720463562575942,-0.002611878085542272,-0.007230636947667022,-0.04523892104115164,-0.03693536142701948,-0.028836937275925057,-0.01431074171723779,-0.029902559831619775,-0.025793954258602016,-0.00863167265035279,0.004975042044998788,-0.011547178833390102,-0.02830370306575116,-0.028685395745814326,-0.019331973132621017,0.0196927622183577,-0.014574152944159606,-0.019153568755211292,-0.040539136629538834,-0.02225158260282483,-0.004135590135055297,0.0071827569528495035,0.008399416294904084,0.009496903906825534,0.017136045233377518,0.01472607821770144,0.02553593800917446,0.01636646037096125,0.013808027716229708,0.04777258919971752,0.06513081058922797,0.039326307380592784,0.033486880910130544,0.007769030092595803,0.025300192198365552,0.03295006556715185,0.04402119351514253,0.045242766017222866,0.07649013012425995,0.07134565230939176,0.08961396240223551,0.09144987628799156,0.09347578753786956,0.07245384958723537,0.09815190856092894,0.08754161391643725,0.09378171588045003,0.08698931262479125,0.09042741059465496,0.07753385268059429,0.11807383827839273,0.14562458758582478,0.13030086474406372,0.1186146229703972,0.1371472725345579,0.14272501058185502,0.12871148283382522,0.11836445855179875,0.11501117199646055,0.13526485990169007,0.1691649953545319,0.17685553795288442,0.17494762722549054,0.18005151842340314,0.17888175489469235,0.20465505976404197,0.21751099312218067,0.24734271183584705,0.23767942229614605,0.24498514569226595,0.2725763376343338,0.3071599859373888,0.2822953383528325,0.27769264408249783,0.30994941794796066,0.31926386910852433,0.3488037627664292,0.3620157020316458,0.3688476260295367,0.3659590695114668,0.3931891544510047,0.3973690129579599,0.4282989169863968,0.4328060458552873,0.4341133545880711,0.4222251484392399,0.3904652106703843,0.3753366448776865,0.4066973051835317,0.3915021717938229,0.3762134315305546,0.4770459337561709,0.5311941665607239,0.4289966099865454,0.4593869169697554,0.5359503066159064,0.5124800267662721,0.37895423703933945,0.058915563176024026,-0.258363377944196,-0.4267916954799931,-0.4032250598591618,-0.2275198106452219,0.09704415329158386,0.36458798445684215,0.5386364274028367,0.6923268066796996,0.7925009992915264,0.8259273120516099,0.8458030607456835,0.8787482429319453,0.9115188442668269,0.9209015109439304,0.933503060170713,0.9427092189083592,0.9585092894721112,0.9809229149095016,1.0,0.989177302039142,0.0,0.0,0.0,0.0,0.0,0.0,0.0,0.0,0.0,0.0,0.0,0.0,0.0,0.0,0.0,0.0,0.0,0.0,0.0,0.0,0.0,0.0,0.0,0.0,0.0,0.0,0.0,0.0,0.0,0.0,0.0,0.0,0.0,0.0,0.0,0.0,0.0,0.0,0.0,0.0,0.0,0.0,0.0,0.0,0.0,0.0,0.0,0.0,0.0,0.0,0.0,0.0,0.0,0.0,0.0,0.0,0.0,0.0,0.0,0.0,0.0,0.0,0.0,0.0,0.0,0.0,0.0,0.0,0.0,0.0,0.0,0.0,0.0,0.0,0.0,0.0,0.0,0.0,0.0,0.0,0.0,0.0,0.0,0.0,0.0,0.0,0.0,0.0,0.0,0.0,0.0,0.0,0.0,0.2607230433575269,0.6429587031278452,0.9680432867635796,0.8672323220445776,-0.5563656267113708,-0.3266040942135169,-0.14084330387425747,0.02752315812244753,0.16857695139391604,0.2624346522200599,0.28921199399603376,0.29545636942116776,0.3410003194303094,0.3494873161477133,0.347530232486064,0.3351670053304901,0.2925039424717273,0.27272194449066445,0.2426375865278101,0.22221245729590008,0.19819044658101845,0.1971741159934252,0.15940217327047926,0.15133498608608942,0.1198527764439119,0.10816281831495568,0.10300376065052601,0.104400305883324,0.06919520996691339,0.05720181264335562,0.04519189333186605,0.03983178260744332,0.02453604506851647,0.022578829041063626,0.03398262015373454,0.015588359680699862,0.0272079247730566,0.005752117406845058,0.027640843621099302,0.01981979487003317,0.025492224489157042,0.02807161238531371,0.047509445316813864,0.0572539896497004,0.0838996513847392,0.08096428162756725,0.11157971492333553,0.12594132948414438,0.14732021424869995,0.17241363985808633,0.17466660033521342,0.20724279340771606,0.2136906405324567,0.22724203844687024,0.2379463839748552,0.2358519377301178,0.26083049920252216,0.2730331228493197,0.2890775847310872,0.3156153500211714,0.3426881956356366,0.3636579689876685,0.3818497497710903,0.3906218536682649,0.3932956328344211,0.396512134889392,0.3936238466793586,0.4045544610808024,0.4027226228167656,0.4014047367244474,0.3740154111414704,0.3404703274159797,0.3439348368361673,0.3378880768440488,0.34224043668489185,0.2639645646519379,0.23922514943340165,0.22481653690559514,0.1742102282452115,0.15713430063177372,0.13370155725589275,0.0972405013753948,0.06433050775742273,0.0449071678188688,0.03229750845472723,0.013185034876409476,-0.019103612044471648,-0.014773831605656334,-0.00374877403466492,-0.002663591749527672,0.005063404703976759,-0.030418813656150838,-0.029417006747931424,-0.008562853344371952,-0.007736777619941321,-0.020315310243834768,0.00018553599508852733,-0.016006021823071974,-0.04233395890361327,-0.03895413558427169,-0.015843119084765583,-0.01951191029452264,-0.01675043923373332,-0.02084986232531582,-0.028491501831102058,-0.016424807832771796,-0.007899603753536858,-0.022842504085992973,-0.004781455661326932,-0.010178286784480123,-0.02573975147079709,-0.014920096781275115,-0.0042824474040866105,0.012827975120508615,-0.01340166967106703,0.013368250868094348,0.030039510997671024,0.02001689817029249,0.053067912561701285,0.04948576843891602,0.015926277650060196,0.035442921813467615,0.06154480853508175,0.0543841653539806,0.04386753213650825,0.046614582532694536,0.049349933690061805,0.07533610399581013,0.06479415074067481,0.08084575176812951,0.03713807512666102,0.04329515049443604,0.05614498746114048,0.055766919157810936,0.04216988943377749,0.02200586045151796,0.0251781235411659,0.03508677996934667,0.05838334512917068,0.04525113322402706,0.04552262375673469,0.05588369279249665,0.06637669163565346,0.0471138007288505,0.05789138012581487,0.06882104281672999,0.07658730092585339,0.07455267389835665,0.07933083826000949,0.09092685490385248,0.08941549662550377,0.09805251304664094,0.0935901266772525,0.11921304124219854,0.1383859267427812,0.11789450568896792,0.1274949144511196,0.12068499984155387,0.1306815369709405,0.14751926606461602,0.14130238249700108,0.17846215268846988,0.16599000500163488,0.15702901273870665,0.18479152780863925,0.18948295690691155,0.19102734854428696,0.19606120952125736,0.22450668579705887,0.2531035115645462,0.2519470013354012,0.26088582415505635,0.2732643092997316,0.28574713019039805,0.3049625396480955,0.3043208760194947,0.3336288700376201,0.2799309507113955,0.2594636305025518,0.15926827062090845,0.11550857799852053,0.15141141171444722,0.1274422731851372,0.13325965836713788,0.3448842889262981,0.6692826857465556,0.9436650252390948,0.6863598743099741,-0.1259214152655605,-0.4003970026906953,-0.18692019404608112,-0.0501617866472478,0.05308686862725593,0.17268248341635706,0.2953701810210737,0.3846426813129037,0.4172778216079271,0.46305767607722903,0.4821478295650146,0.5177527659739051,0.5034601555296022,0.4957560769272369,0.5278725515440584,0.5201030704652891,0.5156394826466513,0.5078463079204362,0.5399102165296009,0.0,0.0,0.0,0.0,0.0,0.0,0.0,0.0,0.0,0.0,0.0,0.0,0.0,0.0,0.0,0.0,0.0,0.0,0.0,0.0,0.0,0.0,0.0,0.0,0.0,0.0,0.0,0.0,0.0,0.0,0.0,0.0,0.0,0.0,0.0,0.0,0.0,0.0,0.0,0.0,0.0,0.0,0.0,0.0,0.0,0.0,0.0,0.0,0.0,0.0,0.0,0.0,0.0,0.0,0.0,0.0,0.0,0.0,0.0,0.0,0.0,0.0,0.0,0.0,0.0,0.0,0.0,0.0,0.0,0.0,0.0,0.0,0.0,0.0,0.0,0.0,0.0,0.0,0.0,0.0,0.0,0.0,0.0,0.0,0.0,0.0,0.0,0.0,0.0,0.0,0.0,0.0,0.0,0
-0.051744392711611284,-0.4227416015596479,-0.9594142755128284,-0.5636755363564215,-0.0003333155899259948,0.29911942146691056,0.4331300272145393,0.5001443584563036,0.5439730871644605,0.5920344788351893,0.5788679464916179,0.5646658871006649,0.5440581802723765,0.5826948072225983,0.5768606694153289,0.5430303970386203,0.4976757359771775,0.4736556227180049,0.4765099957789516,0.4571434062188026,0.4538708532358841,0.4394454272943507,0.3920812514221848,0.3500865725192783,0.34630437516117085,0.3698694781457784,0.31703883614152617,0.329916140783724,0.3375347237077944,0.3945822110846416,0.33721246468775035,0.3621552999738216,0.3765838446781962,0.3750822464492356,0.3795492796065532,0.4064185411404345,0.4120254091957223,0.4455793624321683,0.4798015925291481,0.5365807805320802,0.5831701892974699,0.6250635122045849,0.6513616210274611,0.6730154698949536,0.7282892657182877,0.7461778119694376,0.7212318936911897,0.7026315842182207,0.7614065583981184,0.6954178820157985,0.7177337595986062,0.6808409919902056,0.6393649623349779,0.6697808572447246,0.6682717032092993,0.656673121930455,0.6131109784066686,0.5703408734517569,0.5392621346522648,0.5034547282998945,0.47381243396615,0.4120567966860381,0.3837097288762014,0.32863513855311355,0.2741078458741237,0.24193772590279305,0.1938369620644084,0.16800275494895722,0.10429190143590593,0.046363094834752,0.07065431850405546,0.018681341508815803,-0.00033862637090345944,-0.03016092246840745,-0.02166471933988022,-0.04045566453386683,-0.04833461100676969,-0.061731587607810064,-0.09707203139816388,-0.061509476576283015,-0.0479405007128677,-0.04545310153453768,-0.059520628174629824,-0.04644239445898032,-0.033534984688983874,-0.009867457711896326,0.019104407694287208,-0.023097154775180227,0.00011876785862208833,-0.0532831150185282,-0.030319791037561626,-0.012925168411567486,-0.006544048120155788,0.05440292168329837,0.07705995890523598,0.09969025547176956,0.1223135045825518,0.15041220290405252,0.17307832978093374,0.17393981057874727,0.21310993212472615,0.19772865784038995,0.16605413163187815,0.14541690492585124,0.15768339696021608,0.14276977111692976,0.14985744072286453,0.1407142745665167,0.14813031708441424,0.1393352861245718,0.14711778190055852,0.13324278301427775,0.1851304765949082,0.16620500491581702,0.13656845364940967,0.1836385870335408,0.19269031549428148,0.19650678305333275,0.1732371510998675,0.16658922150628316,0.2038800242049368,0.2250129254925567,0.27369300870955604,0.24065177842505894,0.2515413532212319,0.2681135908784983,0.2794356010609904,0.31281626629155057,0.28083373163502084,0.30367005096252164,0.2829737972527153,0.3334607999397139,0.3567766987829367,0.3747581084358943,0.3709967462419376,0.4001053806891108,0.4128921888379215,0.4421128759933991,0.4549614599824885,0.4677994653306104,0.4423531225749346,0.4933187769619645,0.5277850890849797,0.5238611778786096,0.497896636778704,0.4880916475876019,0.5053273930339843,0.4839963885349627,0.4896078689049642,0.5111824221231426,0.5814446034740669,0.6183870720501999,0.6492656180828881,0.6740164302776411,0.6980357529299736,0.6884733468265831,0.6725718036744475,0.6120106497966704,0.5941219927735213,0.6133587475244053,0.6368543487682874,0.5170098241503999,0.4886541513108818,0.4151091924102902,0.06681823373081001,-0.23398402026373946,-0.3234989548254633,-0.5132129935988082,-0.8359534300046663,-0.4612970991705229,0.04811659023775475,0.37007733717490265,0.5320259227707862,0.59964439119525,0.6276855226523341,0.6490458914517423,0.6911556315574702,0.6831021971783443,0.6796255308612194,0.6862924423791079,0.6649599280326092,0.6321145718410592,0.6151662368603447,0.5650353987201614,0.5145889859904469,0.4857644982279547,0.5059601639626033,0.4987690464580142,0.4915844156207937,0.5172603494304108,0.4666026180737856,0.4871895955865565,0.4752854347589005,0.46919770230348706,0.4744517769972413,0.436474370529532,0.4700521817917888,0.4714376505797875,0.4734634143807708,0.4434001304765877,0.4632454291120108,0.4620222698244994,0.5053338438767428,0.5003452767953258,0.5126549230623685,0.5204458047440872,0.5729213055673179,0.6154794705860671,0.6262952917563837,0.6436370047360088,0.6402100906890846,0.6652030394480595,0.7186314225320735,0.7076313528374535,0.7141610114824548,0.7218356069028579,0.7088034748112912,0.7296955685956782,0.7407998631008585,0.7311804962023988,0.7117511094489299,0.7207381980770772,0.719878471714588,0.7528545650696449,0.6939831539971262,0.6634257363933601,0.6119779807779601,0.6106248807399471,0.5773759162717782,0.5067237410948363,0.4368645373956837,0.0,0.0,0.0,0.0,0.0,0.0,0.0,0.0,0.0,0.0,0.0,0.0,0.0,0.0,0.0,0.0,0.0,0.0,0.0,0.0,0.0,0.0,0.0,0.0,0.0,0.0,0.0,0.0,0.0,0.0,0.0,0.0,0.0,0.0,0.0,0.0,0.0,0.0,0.0,0.0,0.0,0.0,0.0,0.0,0.0,0.0,0.0,0.0,0.0,0.0,0.0,0.0,0.0,0.0,0.0,0.0,0.0,0.0,0.0,0.0,0.0,0.0,0.0,0.0,0.0,0.0,0.0,0.0,0.0,-0.09246770454743038,0.09875084832894272,0.6764478880286807,-0.6266736654318794,-0.357837166030349,-0.09590750031164193,0.18103190171194314,0.3637874752063568,0.3923344674408957,0.37600866620842605,0.3804374822847164,0.3892969176307789,0.34801795859354884,0.33314889106965384,0.3338234301764083,0.3391736252866709,0.3055500451475797,0.282177695245761,0.2691103360547603,0.2500104114053616,0.2467821330033334,0.2266954433214368,0.2389685796931926,0.19623609802252928,0.15864051115904132,0.17539674693564264,0.15367309011222058,0.14268279833539801,0.16432185129587226,0.14214608074463858,0.13629304477581067,0.1304133638997684,0.15732669442452266,0.16790251181983987,0.20042233561153425,0.16204759977858055,0.20578732250255125,0.21694791774036373,0.2338072242189834,0.2509355805810266,0.2956819679415588,0.297054678212032,0.2987898651740535,0.3009157819910796,0.2870692821229556,0.322835243222042,0.31536135196953297,0.27559641731421197,0.30736380400571817,0.3068800259239928,0.3779655330175683,0.3567374468481911,0.4016458123175489,0.39797379473534417,0.4877777413326837,0.4689239886317136,0.42336813400681533,0.43306343021242655,0.4652316728823194,0.4433860769883548,0.4166934754602145,0.4070019747067206,0.4033777861607471,0.4058116900814849,0.3651227325763388,0.3304673652199735,0.2909038928743457,0.24641557190077576,0.2024475060592148,0.1699068689498492,0.1651631238534301,0.13356195958112868,0.10786106981801716,0.07164776317651461,0.05767852622654615,0.03314986428208065,0.025354315363501096,0.012414534479013776,-0.03301025205284698,-0.039921445460508805,-0.01926683976987972,-0.02023354989621423,0.0008692722026268533,-0.01606833968778266,-0.01096371393013955,0.021634328424179426,0.021618384859480512,-0.01648603613062173,-0.027130609209201864,-0.01032506588304228,0.006606930158474539,0.007269299943414678,0.02989895064614382,0.041709828159292466,0.031768936553118035,0.0601659962839721,0.03401811525686276,0.05165766768014236,0.003811384783975939,-0.005725485684103672,-0.04252007449443362,-0.019166514789550157,-0.0121539578477634,0.01129630423342223,-0.014375300543212531,-0.007219248867842559,-0.00547729397518149,0.012705817827745013,0.00908953947779367,0.005529581481777193,0.00749170314452588,0.02044163612296253,0.03891847077930436,0.019218081840922576,0.02143888588663986,0.012803070797254469,0.0643354537029404,0.03399201291281158,0.04743019904536932,0.044555027543819264,0.08000061698036767,0.060891711363516975,0.09103152375010544,0.09393399944127853,0.1242318746148435,0.07812166015385451,0.1249643416867438,0.14456551257460604,0.12599617971872815,0.1512027598004495,0.1710117934859297,0.18541878269038486,0.19988167618815855,0.2471740052501556,0.21802245186842906,0.2271478408069014,0.2854671702734303,0.28370366053857765,0.281941463998001,0.285630295348104,0.3220716672503505,0.34207943736139684,0.3565621740786085,0.3709634334840689,0.3961882907670858,0.4103601547912285,0.4353068688233727,0.4272946013124795,0.4190735710264961,0.45431846409655197,0.4182661156611669,0.4256097698265294,0.4872378429244455,0.4774540752854956,0.4180689228396108,0.44015649260824624,0.44533012070825184,0.43900367891782,0.4976117372997742,0.4735912922566475,0.4761520422827527,0.4833820718816607,0.32039463109007005,0.11824546044764088,0.02437860427516314,-0.03775786297577195,-0.15564259258278454,-0.20914517593890114,0.13494835641485334,-0.6148709979145699,-0.3443336501192852,-0.07504689963314921,0.16573561490003716,0.35623068621003423,0.3927047495771021,0.4172710454423455,0.4245316989345555,0.4254766545815809,0.36553411123563545,0.35949249982660597,0.3582393660709718,0.3563668735674732,0.3648553004723051,0.32912352009015416,0.27653811022063,0.2836337203085965,0.2794344653198005,0.2257428535599573,0.2264058460329255,0.1885904059768752,0.17243481830740698,0.10695717895381077,0.15609670414937088,0.12867745066530015,0.10668779069404187,0.06284941467888541,0.06275961223178209,0.051822716519519314,0.013685860337488335,-0.007907761533456806,0.008931769585856059,0.02053550059480453,0.04333075483296365,0.033648431863360084,0.024305441448576718,0.06450843086332213,0.0832712836570071,0.1243369011168836,0.11671842789378975,0.153327444496909,0.19049239989090944,0.2446372975022823,0.26116226336028364,0.3165854463419631,0.3508411415606778,0.40220149572826347,0.4324506744975181,0.49078366320328104,0.462494227384169,0.5497451899099938,0.5504127192403986,0.579241746358588,0.608928600313701,0.6449465254547136,0.6873024195695064,0.7141467480409521,0.7145531435760155,0.6994448758203017,0.7234480569984584,0.6827495464859981,0.6592848516333795,0.0,0.0,0.0,0.0,0.0,0.0,0.0,0.0,0.0,0.0,0.0,0.0,0.0,0.0,0.0,0.0,0.0,0.0,0.0,0.0,0.0,0.0,0.0,0.0,0.0,0.0,0.0,0.0,0.0,0.0,0.0,0.0,0.0,0.0,0.0,0.0,0.0,0.0,0.0,0.0,0.0,0.0,0.0,0.0,0.0,0.0,0.0,0.0,0.0,0.0,0.0,0.0,0.0,0.0,0.0,0.0,0.0,0.0,0.0,0.0,0.0,0.0,0.0,0.0,0.0,0.0,0.0,0.0,0.0,0
0.4822408259848254,0.3477201608495489,0.07354647907600892,-0.02934516605635546,-0.06965315606903695,-0.2498734173316013,-0.5503365765980919,-0.8772966284593405,-0.4112369224834618,0.06296316085555384,0.3133915851993057,0.5524533645049796,0.6568454921170064,0.7007365836158345,0.7385445319041669,0.7259465339503687,0.7272270054767073,0.7079295402213595,0.6681521130754721,0.6573577554082007,0.6657638424772838,0.6490264454636853,0.6171037624674379,0.5552664483934919,0.5870141417799736,0.5791270049790739,0.561298632487119,0.5681565827779795,0.5454621348060862,0.5080897613189495,0.4906586462036902,0.4882905559980543,0.4615467866585593,0.4450390868775077,0.4240083014875588,0.4330616462516474,0.4376881823152069,0.4231222439657229,0.3992802751126248,0.3908871828918349,0.44241331648818394,0.4107264053728893,0.4094086668042784,0.4039344760315216,0.4190184766113072,0.4250678366896621,0.4369193658333694,0.4299128713694605,0.4435651509915607,0.4828328355409414,0.4687437246194118,0.4852395708794466,0.5027120121657643,0.4866134005126578,0.5110044858709214,0.4771534986843618,0.5035479373274803,0.5062616702918735,0.4852926617431588,0.4900049406643122,0.4858334961612933,0.4875794634410692,0.4804203908676998,0.4495313889079279,0.4195800428271099,0.4349791286839419,0.4364652727729145,0.43882582068144055,0.3778561818694322,0.3226447812071161,0.29784641777067034,0.2886194005117986,0.26037311069983193,0.20813664418252464,0.15162209300493265,0.10560364891632,0.0996653243931987,0.06959027125498697,0.03508775640818832,0.0010561199702368636,-0.032543332992786285,-0.036128145019973835,-0.019607643934352152,-0.04225632151088078,-0.049799035709212285,-0.057072664714449876,-0.029540759677594206,-0.05608294016077315,-0.037975354076246734,-0.024594609834089988,-0.011008252447459566,-0.01696578850443281,0.0069003557668895574,0.03590647169974972,0.050305675738181635,0.050098343244144895,0.055032036501504,0.07991720768983616,0.08525857809025485,0.06118162707326107,0.09161174035531454,0.11236820936760936,0.12838590205863154,0.1594097033735329,0.13632038330167673,0.14797742238618136,0.15488126964140236,0.16690023032029322,0.17415439681917466,0.15195244819550305,0.1743393849861702,0.18700109803898068,0.19486492185566587,0.2324784136078929,0.2307141042787281,0.23399113354830264,0.2817906279136553,0.2605498959264557,0.3035478178137844,0.2922821308121205,0.29584971969655266,0.3389142713183755,0.3967693971545752,0.4447070141107807,0.43333275718278014,0.4514821069832794,0.4843143255972066,0.5317969965366681,0.5494635452290029,0.5718344919177026,0.5692484345651099,0.5811571465371013,0.6075146780568123,0.6137141562736478,0.6342617053396172,0.624670627034812,0.6342513844696454,0.6431952828254008,0.6662484733144363,0.6391641373715591,0.5371870020897774,0.5379698428568233,0.5970040665597232,0.6204097941105782,0.5439253190765828,0.638992286630789,0.5846264688111312,0.3856731771237975,0.3382495170843202,0.3731430545120921,0.20391784102579472,-0.0461045896277687,-0.45601496740641206,-0.8531198020908123,-0.7635338456729112,-0.3600194130102541,0.046501647602964304,0.3179317761567711,0.5580793011489351,0.7078345942034999,0.7870749903491397,0.7959268469912719,0.7888180418986441,0.7757407366926283,0.8061780258049558,0.7864401961991149,0.7808130115507372,0.7202830937950563,0.7234338260799451,0.7261811844726802,0.7187429836096882,0.7357651437346128,0.7329002375750423,0.6855445974831313,0.6628912239486945,0.6452662167122803,0.6475503783463153,0.6204421101287189,0.5689420313237992,0.5671636935613085,0.5411120153837117,0.5204631313789967,0.490458734061936,0.4906433693699255,0.4815693771455554,0.4632815209151365,0.4605064544209486,0.453536778484528,0.4621576682957067,0.4666571544598561,0.4670683952442897,0.4979802329185465,0.5051157013839105,0.5428062561170635,0.5468961963144763,0.5519642993927592,0.5728391698372565,0.5848517754112477,0.6077619561953026,0.5971474530476899,0.6171938794934602,0.6135992326186941,0.601174458116069,0.5947274336820995,0.5991893119158674,0.609614552554144,0.6259914789997121,0.6236210685197368,0.5629905895862748,0.5576268405557416,0.0,0.0,0.0,0.0,0.0,0.0,0.0,0.0,0.0,0.0,0.0,0.0,0.0,0.0,0.0,0.0,0.0,0.0,0.0,0.0,0.0,0.0,0.0,0.0,0.0,0.0,0.0,0.0,0.0,0.0,0.0,0.0,0.0,0.0,0.0,0.0,0.0,0.0,0.0,0.0,0.0,0.0,0.0,0.0,0.0,0.0,0.0,0.0,0.0,0.0,0.0,0.0,0.0,0.0,0.0,0.0,0.0,0.0,0.0,0.0,0.0,0.0,0.0,0.0,0.0,0.0,0.0,0.0,0.0,0.0,0.0,0.0,0.0,0.0,0.0,0.0,0.0,0.0,0.0,0.0,0.0,0.0,0.0,0.0,0.0,0.0,0.0,0.0,0.0,0.0,0.16015055254519311,0.011385368331080772,0.05420679583400755,-0.061957948336280474,-0.12487992277092147,0.08261255955661025,0.4025017187101073,-0.6561827337036079,-0.35352441061295026,-0.11131724098399454,0.05074656100636031,0.21665940818310028,0.2877496539732785,0.3529452337846056,0.3678774347371057,0.4066604099263373,0.3854269654584133,0.3585399432893847,0.3754233986279044,0.32752008638063584,0.30868212845266096,0.2597173611589277,0.24979042733058834,0.23945375973542635,0.1941954018016597,0.1979868303904115,0.2015033418463788,0.19491411948067447,0.2029453563756992,0.15652193840440695,0.17416840199066794,0.16212353760810674,0.164857334040326,0.09848061952639403,0.11113579980954663,0.10412180760137102,0.08241107179844652,0.09047037758888256,0.07402890585400917,0.1022368754375438,0.08626462743640229,0.08538778014025325,0.094702345552205,0.07968275106103906,0.1193507216329424,0.1298112166055031,0.14565322926440494,0.1471596481009682,0.18866552752893176,0.17639939778666358,0.2239369495128768,0.2226943087835998,0.2418134280426699,0.22207679633553376,0.2474346224050572,0.2784145142958486,0.3101008601674015,0.3227660772689244,0.336175909245894,0.3898419243636843,0.40972623891899,0.4353367910880169,0.4271897166146403,0.4445361668102004,0.44295110517346253,0.4619338859360658,0.4718656139981289,0.4579356634280539,0.4843208027673093,0.4424054244390608,0.3963615857024457,0.4054222721769081,0.3560284012339787,0.3518406860869509,0.3089173945294141,0.2864839639160865,0.2400902351507225,0.21908494935610587,0.1740784549524247,0.14948033757396936,0.11070955866161927,0.07748978799284721,0.054733562959619564,0.04241617389239168,0.01089147977837809,0.004566021712489026,0.013540830593954679,-0.026388541246384425,-0.001699663129284357,-0.006215701192065198,0.0044724090479385595,-0.0140891504612725,-0.047111904782890936,-0.03043744438510533,-0.008513795581712185,-0.0011017950664361457,-0.023024611109850875,-0.005178693898291288,0.032678220693684916,0.011546573416588284,0.030153587682382237,0.04899436001817475,0.028563836183135217,0.0132833303783402,0.0031422774725461287,0.042561782430996564,0.008109707680133223,0.033070402691178016,0.05325379188397402,0.06371194967720267,0.06937040344572781,0.08502808122980644,0.051430670029113085,0.0771766585303305,0.1326322091148028,0.10917334447944513,0.11046038750068064,0.1661002209996445,0.15759338711840426,0.19353513967618874,0.1998561388601635,0.21603384827092906,0.24698671494039426,0.2285160711552321,0.2593383814833846,0.2653788814724518,0.2663618426169759,0.24745219222909398,0.2629295603877245,0.29301944572225896,0.2883248745388616,0.2883108810727453,0.3028199002593243,0.2923243293538971,0.3110953841511095,0.3146656265725409,0.3523663957016985,0.3501059669796813,0.3621492039424557,0.3785800446327298,0.37467003750947897,0.41948917077030395,0.4093154728226333,0.36878322455488666,0.2780929237649812,0.13719066278499478,0.005263458833238447,0.040234835426129496,-0.004794198468032636,-0.03607952178772586,0.1734186515168442,0.5347845198454966,0.8159324857402334,0.5724893144799038,-0.7682806582459187,-0.4269882822585163,-0.21545086040767872,-0.05462790004168296,0.14935213816064638,0.30276531789328914,0.3958135695032425,0.41869730951091344,0.4899733252957073,0.5356587858602121,0.5015158487906735,0.466599202918825,0.4655292929840173,0.4489976173158784,0.4516199600112785,0.3845883698647262,0.4009987585869091,0.37254411703011786,0.3980109732311165,0.3441515907152461,0.3245592235815328,0.26522473989335,0.22049573484479965,0.2200341794434285,0.17995317112897538,0.15953363593484113,0.13412898671486362,0.093902417492414,0.09813248622192372,0.09254951025660328,0.05250447396265793,0.0570219508227329,0.07157848070797017,0.0616503183797576,0.09145055295849944,0.07708617693587767,0.08276951392793973,0.11347018676899627,0.10997822948236508,0.1068834413792792,0.14864879110496612,0.14150464373545807,0.17434442676795908,0.19782879102446607,0.18730181366769733,0.21190691535526507,0.246986247596864,0.25800718314247,0.230183298261105,0.3116432464007186,0.3098712168253693,0.3384351365622865,0.3430481564552007,0.3632220678110091,0.4335300870832556,0.4453746858505858,0.0,0.0,0.0,0.0,0.0,0.0,0.0,0.0,0.0,0.0,0.0,0.0,0.0,0.0,0.0,0.0,0.0,0.0,0.0,0.0,0.0,0.0,0.0,0.0,0.0,0.0,0.0,0.0,0.0,0.0,0.0,0.0,0.0,0.0,0.0,0.0,0.0,0.0,0.0,0.0,0.0,0.0,0.0,0.0,0.0,0.0,0.0,0.0,0.0,0.0,0.0,0.0,0.0,0.0,0.0,0.0,0.0,0.0,0.0,0.0,0.0,0.0,0.0,0.0,0.0,0.0,0.0,0.0,0.0,0.0,0.0,0.0,0.0,0.0,0.0,0.0,0.0,0.0,0.0,0.0,0.0,0.0,0.0,0.0,0.0,0.0,0.0,0.0,0.0,0.0,0
0.2480477863732053,0.015665170779646482,-0.3114882538996863,-0.6252761141600411,-0.6757284651480647,-0.33969320601093606,0.06570728368181007,0.33160172203020805,0.4804828869609745,0.5535003168085944,0.5806060964432901,0.5880178595504241,0.5944869694183242,0.5926400634630901,0.5974909087656287,0.6165869418399781,0.6052290401797706,0.6008120393759973,0.5847524936253103,0.5608540551638199,0.5478441871982712,0.5271307118323753,0.5174355487816656,0.4777710431757034,0.4567073613649255,0.43937365822886376,0.4332869072098985,0.4347668338322909,0.4289359461359388,0.3859878435934677,0.3843328078127707,0.37923362891442136,0.3744630632375395,0.3775236546363761,0.3660626051836593,0.3326519640669475,0.3407639401430133,0.353113619560362,0.35480448674745296,0.3495966789810274,0.36737034529832335,0.3782969478207708,0.3935946323341071,0.3908944999898483,0.3926058881656582,0.3800876592506669,0.4093303862700797,0.41690886394598,0.4252245650638633,0.4156283573488713,0.4254442376524578,0.4397505531184284,0.4398918399861243,0.4557223236247072,0.4499237236451739,0.4486141036625921,0.4517874918904801,0.4631673571551143,0.4603531235623806,0.4582587362141373,0.4568691037135218,0.4487034760034385,0.4225471349979978,0.4231583743430669,0.38334286445056415,0.3291962520224309,0.2830805833630108,0.2486978403790083,0.18870006905817704,0.1329083781980334,0.10367956572919687,0.10471134662401684,0.07999397852460112,0.07054097128149549,0.02780502637673353,-0.003469415330612189,-0.008391521472807471,0.0018080841294075669,0.008436207483281097,0.0002630129221922644,-0.030209693718241445,-0.038236536351605725,0.002272312613037825,-0.013198615677072369,-0.03243408673867687,-0.05172950010261245,-0.01513360249561427,-0.02342094103949189,-0.009438859416406148,-0.029178037867220768,-0.03040943312615641,0.0017819331534056598,-0.010978163867664216,-0.00899166165695648,-0.014656495788561876,-0.009321227112679822,0.007008557471211272,-0.01045204761910105,0.005462527489657821,-0.008690083299367119,-0.01932849763049714,-0.01526060968979499,0.0035124714941241683,-0.011520801232019935,-0.015579900501969585,-0.03478519445559055,-0.013158530110132663,-0.006668960387647097,0.007081069198967709,0.009441226172016271,-0.0070438063017156044,0.006145862987564007,0.015433753379178062,0.01709682294934091,-5.141476105160635e-05,-0.002417327495908796,-0.004919165997323029,0.0073785181049320515,0.00463143630254279,0.005507151077190515,0.0100147833369959,0.025626793820875828,0.0374254910941757,0.06780989242102979,0.06827683795587647,0.06868818615248412,0.08024703566405213,0.1104244580195734,0.10325250089717328,0.10351811930113416,0.08137407830771748,0.05175282960189775,0.06690325483101603,0.0745868337465426,0.06361323209970736,0.07503531427343313,0.08646700396879288,0.09044858444339164,0.09444664135291776,0.08353720601048238,0.095039409061851,0.0692481877015879,0.06587188179203804,0.06252144392253997,0.048002548372850784,0.02977897523188685,0.026509315625650263,0.034461909685611976,0.03124654658028564,0.0280579963181189,0.006237403208619816,0.006832710203727831,0.007453206452677541,0.008098249040807233,0.012498841470698793,-0.012930890079069416,-0.012216473525506649,-0.004015882016580952,0.004209122914552253,-0.00246620612302248,0.005813566633474631,0.0066605396705438115,-0.00738648286004475,0.004723157773366335,0.009407148352789704,0.0029366215106556397,-0.01841733715634736,0.0013232821977743675,-0.012470689848608942,0.0036438669476666842,0.0011607470470268453,0.0062074003560784255,-0.02225903532127164,0.023985894112914328,0.006877634268726013,0.01225253182333131,-0.004662029848926845,0.008385047128806559,0.01781657881087846,0.0311038598424342,0.022132942636242263,0.013301611968357559,0.008349123533742316,0.02220971756912657,0.028769072049588288,0.04669295810092742,0.023745013021343037,0.027102518509069657,0.056772331238311866,0.06424928448809603,0.04580813187510201,0.04623519365217273,0.07673140788200948,0.06640044041927741,0.08614955342608284,0.08747179919750399,0.08903010557981647,0.1020235956937482,0.1488459985593266,0.15486675731342944,0.16486844872776762,0.14899920157474913,0.1706984123664335,0.17025917107077046,0.17753412256226722,0.16266812148716245,0.1629754411200466,0.1784527045621442,0.19043730162109532,0.22504593404032688,0.22256562666141386,0.20164763644505296,0.19586884225691087,0.194024910525162,0.2073006304334246,0.18717288210835087,0.20079970335499103,0.1996560019324337,0.21731272263331894,0.23882792408769146,0.2455268946787065,0.2672456165324845,0.2517218031086048,0.2884958116030445,0.29918097485535283,0.32480306109084744,0.313094250548076,0.32373560994855505,0.0,0.0,0.0,0.0,0.0,0.0,0.0,0.0,0.0,0.0,0.0,0.0,0.0,0.0,0.0,0.0,0.0,0.0,0.0,0.0,0.0,0.0,0.0,0.0,0.0,0.0,0.0,0.0,0.0,0.0,0.0,0.0,0.0,0.0,0.0,0.0,0.0,0.0,0.0,0.0,0.0,0.0,0.0,0.0,0.0,0.0,0.0,0.0,0.0,0.0,0.0,0.0,0.0,0.0,0.0,0.0,0.0,0.0,0.0,0.0,0.0,0.0,0.0,0.0,0.0,0.0,0.0,0.0,0.0,0.0,0.0,0.0,0.3067189151954553,0.6654558676041126,0.8739027468597593,0.5961555082501834,-0.6716200281979731,-0.4031338724156496,-0.20673775150070733,-0.04507259050849445,0.17148389715789508,0.3086572589949165,0.3590494303109174,0.3749677420603623,0.4199127810003913,0.43423769750133184,0.4291955323518474,0.41976883883538896,0.3985479221580911,0.3618526723651697,0.3470495072782638,0.3019426270570306,0.2788216397453137,0.2441459189584773,0.23154375050265155,0.22986199525506198,0.2242146726909057,0.1922512856088518,0.19744894044954991,0.16894316979929205,0.15901408054776972,0.12291715910365428,0.11666255625366125,0.1141627671666428,0.09306138738194533,0.10936679897387183,0.09594135716168614,0.09386569714565593,0.09197640285340153,0.10523137466698826,0.0851494304707783,0.11385779090691385,0.12048421985607638,0.1311796876751638,0.15343614388359572,0.1760864636859742,0.16930433668980274,0.18909129678561012,0.2280094087265529,0.23383958760999354,0.2551170679346981,0.2657422413359785,0.2881261117463918,0.2737763644050489,0.30107648915187873,0.3066046269805078,0.33888792400039075,0.3382331664828491,0.3457009057080311,0.3538381139076671,0.3925068716417169,0.3945437145144,0.4196604608269552,0.452933282496533,0.4719728857714275,0.4543877122335212,0.4673442519988867,0.4473977943303822,0.4094666491183984,0.4132470934636637,0.384092744535732,0.3966225005997216,0.3649909410761689,0.3376912748710363,0.32962973278609864,0.3146623366507226,0.3002286132950927,0.24152294467184934,0.19449367103901352,0.18523445557367624,0.15400926426922995,0.1119831269290298,0.07778367067666123,0.09242806481972993,0.051397426099731615,0.014366491181973669,0.02981468869480561,0.00814907915291594,-0.017077864454348446,0.017539759583170104,-0.003711341424486643,-0.02488709843538741,-0.008701508246544677,-0.0036949280959632375,-0.009895000695778908,-0.02732901773995838,-0.00751144301481667,-0.0027096034984304147,-0.001751489966101003,-0.004659886830624877,-0.01892077947980331,-0.025897924829257925,-0.003221598637284001,-0.018080024757937442,-0.03317397786168084,-0.0074708313333488935,-0.045470470677636224,-0.03523441804026351,-0.02155059056982112,-0.008155037629151611,-0.021171863374648308,-0.03074914198499245,-0.018227987361672075,-0.01345848012027229,-0.012703816068096549,-0.03088433087321593,-0.004553795992382896,0.010323073264257032,0.002562198396487338,-0.0017037138785164895,0.012462979295601594,0.0077565110621545235,-0.00834874355113133,0.02013343958350065,0.0036544140766877173,0.05417635176876307,0.048565334181613184,0.076393141902087,0.07796396535932994,0.10553212351505224,0.12552282079579358,0.13421420343368265,0.1204204226801924,0.1214668465983642,0.1187029858999888,0.12333121342883033,0.13162657378062004,0.13240012752847038,0.11819396079590062,0.12259801822182655,0.09710461244329167,0.10515595360552303,0.08704820478258336,0.06890572798411107,0.0544623478790658,0.062378279340870264,0.03667979126569142,0.0221483001067466,0.026248202085538682,0.00793189479948427,0.023175420370160564,0.012272587078120834,0.005077495725435703,0.042639236801067966,0.016739528075469082,0.0244024767030762,-0.00900534329000125,-0.005118448875729169,-0.004984379383286786,0.010056751043203057,0.010153413893073374,-0.0009608164786158113,-0.0008939980674949572,-0.00457093442438732,-0.004526242070644682,-0.0007574706554000942,0.021664994898313392,0.010500535328210351,-0.023052954337280527,-0.004359008956718294,-0.015509688055584246,0.006939026594248035,-0.007907985956659319,-0.0003369524382234451,0.007269610646236423,0.011187637220261748,0.01515639222589241,0.022915084666982145,0.02327611303232041,0.01624681228510056,0.013029452057778154,0.017362853382195783,0.0143273537265565,0.03005172426083044,0.03468940926908184,0.020783804876408348,0.025658337960171026,0.04558781096267251,0.02087164278538845,0.04107637172177188,0.04276940069275372,0.04461496826947408,0.04288699707641458,0.05251760507959444,0.07351196107694419,0.09094823654526543,0.07870918435172701,0.1077008783874861,0.1294151211329519,0.12519664603034805,0.13236479469542958,0.13599471119486,0.13235592882115668,0.11771730089328085,0.11820048841675596,0.12260972697784285,0.08989519169415366,0.12827379196569824,0.0996708646203243,0.09364380979674408,0.09899406983089963,0.12318103725606315,0.12888340543584784,0.1086327212948872,0.12959356100630334,0.10593092656530384,0.1458567235296332,0.1224862557560266,0.14029848618070187,0.13957768324446224,0.13897277124447188,0.14593692553965135,0.16792262662506482,0.18999152321149354,0.19720442439658584,0.20447465878658025,0.20059278318266235,0.2452503219949645,0.2190169798724637,0.230093939892352,0.0,0.0,0.0,0.0,0.0,0.0,0.0,0.0,0.0,0.0,0.0,0.0,0.0,0.0,0.0,0.0,0.0,0.0,0.0,0.0,0.0,0.0,0.0,0.0,0.0,0.0,0.0,0.0,0.0,0.0,0.0,0.0,0.0,0.0,0.0,0.0,0.0,0.0,0.0,0.0,0.0,0.0,0.0,0.0,0.0,0.0,0.0,0.0,0.0,0.0,0.0,0.0,0.0,0.0,0.0,0.0,0.0,0.0,0.0,0.0,0.0,0.0,0.0,0.0,0.0,0.0,0.0,0.0,0.0,0.0,0.0,0.0,0
0.5685343127671187,0.7600662125172146,0.8542315175917601,0.7081178349670763,0.3880723606158229,-0.05616949294787538,-0.30582071908807645,-0.4174352639145271,-0.5239359377677129,-0.4094327943815041,-0.2333324024232009,0.024366588544442503,0.2408568068604121,0.3963018648207794,0.4941157104546838,0.5443536074296838,0.6002497802951196,0.5821697888774201,0.5798802690215773,0.5702088942119956,0.5565536271227087,0.5389879308094077,0.5541206198722375,0.5123351681645596,0.5000596533518432,0.510713431355305,0.5111401692069203,0.5013974661102254,0.4915053112895265,0.4615863498169517,0.4249772549767911,0.4282288778603041,0.42488378460406295,0.39505558879122543,0.378645453915719,0.35908454243770604,0.3629835550504129,0.3438751283991732,0.338331298558341,0.3164894107491914,0.2949881985707127,0.3004297588964541,0.2929817421815357,0.29924326820971897,0.27937902037861817,0.259985157346943,0.2576914951566858,0.272518307054693,0.28455468638710385,0.2572801210391633,0.2505004847649677,0.2642306905883152,0.2752328590134769,0.28351932940837393,0.2924227135505045,0.28866596275136025,0.28886540337371164,0.29967097272890003,0.31444456950576233,0.30993835116891283,0.3127276315681957,0.2729882576626469,0.2903686985973777,0.2951119813087468,0.29717924666254425,0.28660026852142256,0.29326311773826313,0.2939080549826551,0.3117769546428049,0.3036772500892071,0.2862044901372763,0.2427362194774583,0.2430114146984161,0.2272235443267133,0.2186060761786364,0.19056661334467245,0.17297969164074875,0.16250240831100787,0.1491476985533902,0.1262493336276665,0.09378363620285854,0.08162113486616647,0.04987726923530077,0.051673230890709146,0.03715885623646605,0.016273397640184633,-0.0010440783248031114,-0.024784477895384432,-0.018435528086799984,-0.015237221440199044,-0.035141204826075266,-0.03166470610144866,-0.03139788333406125,-0.024389752131985187,-0.030581182469222437,-0.023407647259116596,-0.009518199941395123,-0.002202967377039562,-0.014751172198036988,-0.003983801998652304,-0.006440008784715958,-0.0021905403450470646,-0.017808612701835858,-0.013434262298502891,0.004291086205532119,-0.004489201332950488,-0.02648540333065192,-0.01186923741755637,-0.0004944166048711929,0.0176112022818286,0.005916729352339657,0.02421899530273056,0.019378749733780527,0.02461948407196007,0.029983161389656926,0.035476567383454005,0.031141392112511587,0.020305742548640537,0.06276559571251235,0.05223439840249361,0.098332440890642,0.12134578356632822,0.14120945237287366,0.1712145693769381,0.17814847056371366,0.18194401302749486,0.19588986597247945,0.2033789517179534,0.22766299602033466,0.2322030334115894,0.2435702830122685,0.2617616143367809,0.2668427876048895,0.2887029828363627,0.28747542578572244,0.2864032215961412,0.30208474088591897,0.3145787879446573,0.3338374938030997,0.3432382280070753,0.3626948252275341,0.3656163239100804,0.3553047861910387,0.3815635261593199,0.4144745156069792,0.4241178185084412,0.4071446150565268,0.4266369363324014,0.4626335633473585,0.4685979553370353,0.47106752699443294,0.4567175671363133,0.4554024407021372,0.4803659861741695,0.4983466849882668,0.4893672110458412,0.4400910436626236,0.41025548394346995,0.3964843096344529,0.4352590300906876,0.4567664178818407,0.4742322836292256,0.5540265313040149,0.5432878878404214,0.43530484729036206,0.5322765046363959,0.6182226008128384,0.4705169182237374,0.18873005982570493,-0.1541429126002133,-0.4319615037413211,-0.5551087090208162,-0.4438914332406552,-0.2510792460464676,0.04000452986973994,0.2567264556336401,0.3925353210418484,0.4574868751280606,0.5413544700222916,0.5678267417265881,0.5901339138516486,0.5684972108060509,0.5760709578404459,0.5498190461906849,0.5429601868233447,0.5455990187062052,0.5345508717106253,0.4999149420083576,0.4948990759203606,0.5062756487154462,0.4643465354112247,0.44888526547129615,0.4234053465410687,0.4012427704477005,0.3957314119916173,0.3869866540206736,0.3484786035779202,0.3333949985460618,0.3284888629373483,0.3039033109196779,0.2995344342679428,0.292165482336916,0.2884730439740451,0.2918105986254945,0.3387466691109271,0.3363040248160108,0.3509428729389165,0.34615063336766394,0.35184594275334485,0.364729221255166,0.3781774812287482,0.37892261423586265,0.3536946209508737,0.3689411732079994,0.3814937714305817,0.4013284485180461,0.4085244927361145,0.4130540228731125,0.4082788722255433,0.4274185917062572,0.0,0.0,0.0,0.0,0.0,0.0,0.0,0.0,0.0,0.0,0.0,0.0,0.0,0.0,0.0,0.0,0.0,0.0,0.0,0.0,0.0,0.0,0.0,0.0,0.0,0.0,0.0,0.0,0.0,0.0,0.0,0.0,0.0,0.0,0.0,0.0,0.0,0.0,0.0,0.0,0.0,0.0,0.0,0.0,0.0,0.0,0.0,0.0,0.0,0.0,0.0,0.0,0.0,0.0,0.0,0.0,0.0,0.0,0.0,0.0,0.0,0.0,0.0,0.0,0.0,0.0,0.0,0.0,0.0,0.0,0.0,0.0,0.0,0.0,0.0,0.0,0.0,0.0,0.0,0.0,0.3742351036950656,0.41023449723046007,0.6015577109137343,1.0345032270638093,1.4166985827896608,1.3428300911724864,0.5138697361644696,-0.4225473688791875,-0.5696650369115759,-0.4058494484686853,-0.21011375147568806,-0.04884702943235402,0.05808467500214319,0.19711271400032535,0.3350888006519525,0.3857172853012649,0.42546162296822,0.4510637743134237,0.4725501669848545,0.43683365040805455,0.4236906542126041,0.4132459666436759,0.4022305003625311,0.3873731018005971,0.3886521462539028,0.3463245063800432,0.3501192974001152,0.35025466281006584,0.3135552383787145,0.3031717172438497,0.2693171732554255,0.2386010816038617,0.2110583823027372,0.20997436237732545,0.17891368778806413,0.14780283754424695,0.13992409893898508,0.12873429164312394,0.1209060214457328,0.11314630474280693,0.11876979626959355,0.1145524507172259,0.0872345746494713,0.10991876478851126,0.08962475299006198,0.08616755591412023,0.07299887917625006,0.08003802331005716,0.08737919524667367,0.07843785030098703,0.10970527551708892,0.13137961138592055,0.1301965841846357,0.12942939760492156,0.11581247004295404,0.162442435668589,0.14643808373089326,0.17078949429004062,0.18236853224380967,0.1944791800199444,0.19717296818642466,0.20707364350630494,0.21755242686069606,0.2319444494841068,0.2502621062750395,0.2525867409665184,0.28543141745847306,0.3056234252225887,0.31649170660766873,0.3147203786976472,0.34349505615213066,0.3529936199604208,0.3531819079662317,0.3540239930451777,0.3588388850155894,0.33772733783711434,0.3238996341785395,0.3206695309071165,0.31141927394869473,0.2828511544553411,0.2814555808124459,0.25075044135959984,0.24054497152238905,0.21760593862739627,0.1885586901628093,0.16667078273486632,0.15856553300861095,0.1177190471132239,0.12715093273122244,0.08054624023919357,0.05760170439588357,0.05829409145591349,0.026131853909561045,0.05741898717475144,0.03919549585621429,0.027905174731207332,0.00691535397432844,0.009417952842379573,0.005493533111827784,-0.004882553365777499,-0.021734982206552383,0.0014151148501625873,-0.01849562349266536,-0.005091434061794782,-0.014860739554626162,-0.017928616061656234,-0.027600159363457943,-0.05385711344820654,-0.03360233166375715,-0.043242791034804766,-0.02299468483579068,-0.03264944693539425,-0.01906027519559261,-0.0021535344060846762,0.008111167091189959,0.01838266840941949,0.008736579514981885,0.02900303851222164,0.0393276283280458,0.05300216405611821,0.07335331843034543,0.0605260677134798,0.04109799287911812,0.08150615515698076,0.09539157588871874,0.10600927182297824,0.10007564843793536,0.1440261469383315,0.1348916308832017,0.13246302382056652,0.15667079195382988,0.15436847054609587,0.17870156587040772,0.16655711227194114,0.19433049069065994,0.18562041488286146,0.20685551562887888,0.2181707412430719,0.2328463829441713,0.2508750468017145,0.2722481746533234,0.2670611167965397,0.2818057794870836,0.2932181136237824,0.3145707953891565,0.3126319548409521,0.3139578235126315,0.3318164754823957,0.356222875022225,0.35726043587849066,0.3614788164390105,0.38878259164167894,0.376033314683512,0.3995998349511846,0.4029831787099246,0.3961153457032218,0.3955696179064156,0.4145956481442456,0.40000813991592427,0.37501764094147627,0.3196512674398921,0.2670806377239072,0.16743455750312325,0.2033558972549822,0.3282929386869812,0.3827568952154877,0.6257850591000278,1.1171138943833412,1.4979490158750193,1.4094904528151813,0.5959018504888945,-0.4047861841156685,-0.5264039002739636,-0.33035089377115984,-0.17867783758958924,-0.07134432682464474,0.10464306933449524,0.2496990506819025,0.32070581955212346,0.3642288412789912,0.3803288976330348,0.40228143497929536,0.37367548654378585,0.3875722599695771,0.3609837201070992,0.3603940797697151,0.3127765067495694,0.3078631469881286,0.2792670995723484,0.2735359757850921,0.2574964248008013,0.2444768081482439,0.2345176055785765,0.20772818301568385,0.1774332195341409,0.1569563555676074,0.15629869580977312,0.15888737158157526,0.14150543556272793,0.13740317175190855,0.13664872516028245,0.09609306804443776,0.1087740809460825,0.07507354665701732,0.058133484218358525,0.06794916012153941,0.094585658747341,0.11814277900912808,0.1486146840568185,0.1362052719967413,0.13408880365183268,0.1290058873412318,0.1508778924003937,0.1798008145272589,0.1792616521609466,0.2190392591004024,0.2393672984553089,0.2801277953552086,0.2749088237292525,0.2801980541008727,0.0,0.0,0.0,0.0,0.0,0.0,0.0,0.0,0.0,0.0,0.0,0.0,0.0,0.0,0.0,0.0,0.0,0.0,0.0,0.0,0.0,0.0,0.0,0.0,0.0,0.0,0.0,0.0,0.0,0.0,0.0,0.0,0.0,0.0,0.0,0.0,0.0,0.0,0.0,0.0,0.0,0.0,0.0,0.0,0.0,0.0,0.0,0.0,0.0,0.0,0.0,0.0,0.0,0.0,0.0,0.0,0.0,0.0,0.0,0.0,0.0,0.0,0.0,0.0,0.0,0.0,0.0,0.0,0.0,0.0,0.0,0.0,0.0,0.0,0.0,0.0,0.0,0.0,0.0,0.0,0
-0.12864907756397562,-0.4205665436577783,-0.7466302946777916,-0.8400795097989228,-0.3006819417146674,0.16198233269446974,0.4680121453005826,0.6442259153468354,0.7494558412004868,0.7784986617295774,0.7901796068925825,0.8006318552415735,0.7779604556533571,0.8076588908564719,0.8044641181248005,0.7898294537205062,0.7318439929437934,0.726657358686879,0.6889908392413656,0.6829706458078906,0.6713351672142969,0.6168193774351977,0.6102193705086519,0.6035916399082758,0.5703337074673795,0.5211922161100315,0.5202711557331295,0.5356235527180301,0.5139557526337626,0.5300358996708755,0.4932129524529144,0.5049299345328492,0.4798667081541013,0.492781206834522,0.5063725476115498,0.5046814630731359,0.5144343128575869,0.5196667742828002,0.5737802107288866,0.59143687077453,0.6313686704290529,0.592223972593321,0.591424797754455,0.5969816490838832,0.6516063507269592,0.6592712254532367,0.6626818544680702,0.7045405226206874,0.7261618239324454,0.7969213064613699,0.8261102915322648,0.8724246720592299,0.8344756144808055,0.8616628567265979,0.8259089314130305,0.8125728574077122,0.7842810671584503,0.7196639898411747,0.7147405702374882,0.6894374992925318,0.6810703312596038,0.5828786368728142,0.5122114158083593,0.4476782368816963,0.4052382469001605,0.37950427482335536,0.3330710042348286,0.25521132051743817,0.2099007217969346,0.1437209931314574,0.12064530708654606,0.06057358129108216,0.054157765799787705,-0.010719247037717023,0.020626157546196625,-0.011946559336442586,0.014231013094853572,-0.050308592527263336,-0.0402077427411401,-0.05156899811153343,-0.07910672204904054,-0.04282610081152361,-0.07082958021958254,-0.09378280264118057,-0.06368876109070683,-0.05526999609144485,-0.0365226004516395,-0.05547771429195787,-0.03209853134674226,0.0016006078856509276,0.002936372539070062,0.03060980116292145,0.036601520342013937,-0.005763916931302781,-0.00043368379713579815,-0.0007629620193121665,0.003925346207942833,-0.013043727877161406,-0.014312934293505568,-0.03189204213959962,-0.03375722241555472,-0.0038896759698889296,0.00970036491536862,0.007027216254636402,0.036129324337739015,0.03832470303568451,0.061651582855594286,0.07410770471902299,0.10238671979511507,0.11982171007312364,0.1424334045217965,0.13288173435996375,0.14453825632975706,0.14006152507431174,0.10878947186616447,0.11476360576814115,0.13664857406952036,0.1691165098339615,0.13747060464847638,0.10041370112094583,0.11131193464209048,0.11147452138725338,0.1435944983907025,0.09028374938999617,0.05826627444394397,0.03687318518159961,0.06345948067787507,0.06332355849488444,0.052475836587662514,0.03625437656517801,0.041341057113763915,0.035721357142365816,0.01939666803946453,0.0030402423150282304,-0.029354863824999057,-0.008419291549696853,0.01782666967290998,0.04405168912058791,0.011564148296387406,-0.010263314815805332,0.03193382035474426,0.03677647333371277,0.0256138608528196,0.0037869561690074727,0.01932476338300848,0.01887189024217609,0.05579324515278161,0.05538916542236308,0.017663987490146898,0.04934216813226695,0.04370728123944957,0.05412324991568268,0.05391348076649682,0.011065089917035968,0.005621341071911652,0.010905045327550484,0.06960724390745174,0.04299424812923841,0.0377889350246041,0.0006333707298992869,0.011569929040217504,0.049256603165200884,0.07100724900829858,0.02879945632580683,0.002674936577058809,0.02998709831101165,0.03603291955506833,0.07950972500455858,0.06437008313024901,0.0653188005066566,0.05033996457514795,0.062121614281001415,0.06331123890762125,0.043236116451024015,0.033911367264125365,0.02466373660616464,0.052843978956775166,0.09177048710726593,0.08274527044423093,0.06845425692042634,0.03822276212088902,0.013391878544191438,0.009966487710958209,0.0012632452693272487,-0.018057163508455504,-0.021317940481549818,-0.003184651535128759,0.004327023601022892,-0.030798292260983663,-0.00717550134073624,0.0004947644634293738,-0.0024471471121437173,0.010683188651612259,0.03455430976792053,0.02114654192096712,-0.018863743471106857,-0.005432022489092129,-0.002584515489841838,0.00035735130984221384,-0.007271682234417118,-0.030800858189617083,-0.04354260862812223,-0.002798379948358055,0.03275014058047152,0.020429591127667943,0.024286843394564592,0.033664388836624495,0.05924867693164036,0.12239802856373405,0.17510221013986504,0.1640143562127126,0.20120334161214395,0.2386566251721431,0.2230246398458492,0.20767702258601053,0.2619903548145868,0.2632434644595014,0.2648025250134161,0.19730393687652456,0.2208316305942751,0.25001163644214136,0.274173158635358,0.2879801711951138,0.3181113964616254,0.3752360572818421,0.3793094482554069,0.3516693652202737,0.3403318067878391,0.3346147947171692,0.3558507682931162,0.3399941759003703,0.3030379846318311,0.31433366025088605,0.33651075604826397,0.0,0.0,0.0,0.0,0.0,0.0,0.0,0.0,0.0,0.0,0.0,0.0,0.0,0.0,0.0,0.0,0.0,0.0,0.0,0.0,0.0,0.0,0.0,0.0,0.0,0.0,0.0,0.0,0.0,0.0,0.0,0.0,0.0,0.0,0.0,0.0,0.0,0.0,0.0,0.0,0.0,0.0,0.0,0.0,0.0,0.0,0.0,0.0,0.0,0.0,0.0,0.0,0.0,0.0,0.0,0.0,0.0,0.0,0.0,0.0,0.0,0.0,0.0,0.0,0.0,0.0,-0.1897021982852043,-0.043193397870743236,0.3206747134342629,-0.6348964939265611,-0.3219638979054574,-0.1438669196620263,0.12357166477613865,0.28833319733614604,0.4625515343425749,0.47555003765477,0.4874829879508826,0.4984216922347731,0.4870909406388152,0.458893130507605,0.4512443429158558,0.4055100069181668,0.40712583167911465,0.3547648035684553,0.3658746877563922,0.3391246611595041,0.3332626672450337,0.31632261616659274,0.2830168510851405,0.2707442924616492,0.25820622716733144,0.229438608216074,0.18982017704717472,0.1714086272275738,0.17424458403850582,0.17702373626152249,0.13176080213457145,0.13987817097274782,0.1480529972271704,0.12430581541465,0.1060246780207888,0.130597016002112,0.14469739250143002,0.15903195604611395,0.15762603235588846,0.17786435063206546,0.1824265738478811,0.1873516742961859,0.1980056724086877,0.22508967172285965,0.22060756724230848,0.2646266052615642,0.31448447216217523,0.3435255907850742,0.31975679168469606,0.34458368439094017,0.37533774331805575,0.3960288192825536,0.4226810055970484,0.4126201969245542,0.4245545519416553,0.4745020073108573,0.482430019367445,0.4856961089476749,0.4896392655528861,0.4729159508831891,0.44619629762718777,0.4414921533502779,0.4427889558591369,0.4233978957714015,0.431332227857844,0.35452249397565555,0.3316900129353145,0.3254656754183174,0.2931426937919589,0.2667169311930716,0.2515026857243349,0.21012476299067864,0.15856690972497145,0.1554999809493609,0.13686558197630105,0.13998891803693914,0.10614615248005156,0.0619890665360121,0.0341689107044324,0.060008665267864775,0.032758603332616085,0.005749293885769218,-0.015713036655840427,-0.004978111165299857,-0.015434457739264947,-0.025765853455916476,-0.0093185892558133,-0.008804766557213605,-0.008239383006892139,-0.01298067925534767,-0.04439417280410358,-0.0011156911150089048,-0.0005536586331027347,-0.005371817752802769,0.011094102000769957,-0.020539476129280452,-0.01491160831039444,-0.02005989606319867,-0.025324305800026297,-0.020042898243084275,0.006448671694471244,0.006120434669313109,0.016318706920943556,0.031701615173597535,0.0362551648297019,-0.018050916401212792,-0.008494446433064424,-0.03646436263645589,-0.011252080300656223,-0.034242265709406604,-0.03606588054644395,0.03664130692732701,0.061158299193141065,0.042828392264980066,0.05102681473497076,0.07508828309122748,0.08833919909538061,0.053433549339371667,0.02907323627360796,0.03660775613179285,0.03335422141180746,0.05666985953480338,0.02651929413981681,0.01761144157655177,0.024614787636190388,0.04219773005270689,0.027676404437180068,0.0290790731023631,-0.012286537303747914,0.0369838695804003,0.011478644945747398,0.012586948270722166,0.04031350422193058,0.025294716297459555,0.02089524330301996,0.005775339472826684,0.027963412798655718,0.012759385520440676,0.02419955652860638,0.03027180336218862,0.030980001747260937,0.05834399523570043,0.032327055332503685,0.038308777610930114,0.03360411926968064,0.08224824324630294,0.0561794293488256,0.046112360573667285,0.06805716092218561,0.052647406007747415,0.05324478803305989,0.059178497594159336,0.0917935782479622,0.039034281055478376,0.06631743104493698,0.0562506052739145,0.06752970472934465,0.07881005118308347,0.06341060889432662,0.06401820630579147,0.06462313630164668,0.07589547099571302,0.033800681288215444,0.03438445452612598,0.008275693264771344,0.02483964460476069,0.025377037528955152,-0.04347550331387049,-0.010968645866385927,-0.0051660402901036176,0.00595030119892367,-0.009633381211170269,0.028125540063114043,0.033853991988251966,0.04490721777816371,0.02393601327889501,0.0029592080341803444,-0.002012547684722531,0.009023322004993692,0.009389484857482651,0.004424682695108411,0.015475669985221,0.021201020158663042,-0.02108485018861985,0.0006769455941826238,-0.004221457618547386,-0.014431511190284168,-0.02461232503843849,-0.002741538766174211,-0.012842811360237731,0.0037889155139522006,0.009811562703595064,0.015907210888543032,0.011413812234287873,0.012349338690950435,0.04540374486786397,0.04655458593734359,0.06383560719985155,0.049231963628459115,-0.002583350068704678,0.009782811939405674,0.02764324497799028,0.08835905301265054,0.07988264559693431,0.07159066586977343,0.010130900681726694,0.0662636132237666,0.1386120029613884,0.12579893804202116,0.0705191298847711,0.10617899860437864,0.13139973769791832,0.08749016868056536,0.16655138968323338,0.2298508298095144,0.15999916486259916,0.12775099405491322,0.15445156040722904,0.13871701131020375,0.1285712780925212,0.09199730053575736,0.10369777284783263,0.12631851210329306,0.133176856616094,0.09758951310762992,0.05690476078465324,0.13918272859667535,0.17900216844188288,0.19236581168546849,0.24863569332315,0.24642025086921104,0.24974329444770754,0.2212430246628432,0.2462848502774941,0.0,0.0,0.0,0.0,0.0,0.0,0.0,0.0,0.0,0.0,0.0,0.0,0.0,0.0,0.0,0.0,0.0,0.0,0.0,0.0,0.0,0.0,0.0,0.0,0.0,0.0,0.0,0.0,0.0,0.0,0.0,0.0,0.0,0.0,0.0,0.0,0.0,0.0,0.0,0.0,0.0,0.0,0.0,0.0,0.0,0.0,0.0,0.0,0.0,0.0,0.0,0.0,0.0,0.0,0.0,0.0,0.0,0.0,0.0,0.0,0.0,0.0,0.0,0.0,0.0,0.0,0
0.25578733356919603,0.0921343547568868,-0.23967842805415385,-0.735795572827997,-0.8218632928655561,-0.4226240291992566,-0.08471898826787665,0.1840332604732664,0.3718605599337649,0.4867980125517872,0.5646103130355319,0.6054049986523529,0.6013635117400881,0.6040888066962162,0.5978330201380716,0.5906150838728088,0.5944125764814571,0.6172384875306507,0.615601567317458,0.5856238393362657,0.5947336959751858,0.5756609795779611,0.5879049088670755,0.54041965857904,0.5164684452407493,0.5002708848064146,0.5156603702777766,0.5310048901564937,0.5186314905813479,0.50632746581233,0.513954245074026,0.5177927306249605,0.5416608862201411,0.561834455383214,0.5506248373944189,0.535803525507378,0.5728707114243551,0.6262062812335473,0.6483023488526677,0.6669189800085604,0.6662350035875935,0.677965545148942,0.7060909475039345,0.7268567120633437,0.7481978972950102,0.7859691992611658,0.7688655823770916,0.7523504312592929,0.7364203830507045,0.7052217693862021,0.6706286913715755,0.6484733599427439,0.6387380891362666,0.5938623193541956,0.5534382879656021,0.49763072394332497,0.4382946765805693,0.3912443429558957,0.3247520974067753,0.2546279893166711,0.16102572085777914,0.13106189141469105,0.07754031392846626,0.012305044505098159,-0.021107160939184005,-0.07423887054878912,-0.1590142878980807,-0.1803863935163777,0.0,0.0,0.0,0.0,0.0,0.0,0.0,0.0,0.0,0.0,0.0,0.0,0.0,0.0,0.0,0.0,0.0,0.0,0.0,0.0,0.0,0.0,0.0,0.0,0.0,0.0,0.0,0.0,0.0,0.0,0.0,0.0,0.0,0.0,0.0,0.0,0.0,0.0,0.0,0.0,0.0,0.0,0.0,0.0,0.0,0.0,0.0,0.0,0.0,0.0,0.0,0.0,0.0,0.0,0.0,0.0,0.0,0.0,0.0,0.0,0.0,0.0,0.0,0.0,0.0,0.0,0.0,0.0,0.0,0.0,0.0,0.0,0.0,0.0,0.0,0.0,0.0,0.0,0.0,0.0,0.0,0.0,0.0,0.0,0.0,0.0,0.0,0.0,0.0,0.0,0.0,0.0,0.0,0.0,0.0,0.0,0.0,0.0,0.0,0.0,0.0,0.0,0.0,0.0,0.0,0.0,0.0,0.0,0.0,0.0,0.0,0.0,0.0,0.0,0.0,0.0,0.0,0.0,0.0,0.0,0.0,0.0,0.0,0.0,0.0,0.0,0.0,0.0,0.0,0.0,0.0,0.0,0.0,0.0,0.0,0.0,0.0,0.0,0.0,0.0,0.0,0.0,0.0,0.0,0.0,0.0,0.0,0.0,0.0,0.0,0.0,0.0,0.0,0.0,0.0,0.0,0.0,0.0,0.0,0.0,0.0,0.0,0.0,0.0,0.0,0.0,0.0,0.0,0.0,0.0,0.0,0.0,0.0,0.0,0.0,0.0,0.0,0.0,0.0,0.0,0.0,0.0,0.0,0.0,0.0,0.0,0.0,0.0,0.0,0.0,0.0,0.0,0.0,0.0,0.0,0.0,0.0,0.0,0.0,0.0,0.0,0.0,0.0,0.0,0.0,0.0,0.0,0.0,0.0,0.0,0.0,0.0,0.0,0.0,0.0,0.0,0.0,0.0,0.0,0.0,0.0,0.0,0.0,0.0,0.0,0.0,0.0,0.0,0.0,0.0,0.0,0.0,0.1697810972077295,0.0537787598453203,0.055161776838941405,0.019321229480823317,-0.9808710848459378,-0.6121170875874394,-0.3323111110364089,-0.101790951429459,0.13498370830824793,0.3345219569175445,0.4454089363427707,0.487537562820043,0.5006067052356744,0.50054297915431,0.5072321330460444,0.5009410532763198,0.4896655416227426,0.4695139873407263,0.464323782930805,0.4583136139338204,0.4515463880276016,0.4401210853829323,0.4122111565607053,0.4114507546620448,0.3943159810748285,0.3806670549567707,0.3388609566789975,0.3204471179958483,0.3175487372722447,0.3104025028205911,0.3584762339891189,0.3508858527375925,0.358980741837486,0.3629909030345702,0.33522127129295554,0.3232460494627745,0.3231364970811198,0.3349238933938127,0.3665611738421406,0.4022297836140699,0.42610933509169824,0.4303007013861563,0.4504806203906322,0.4628991394101716,0.43588078146876796,0.4447119254470601,0.4775207801643149,0.494701879307343,0.492302092409835,0.4861739951909637,0.4644362502866101,0.4746296285473148,0.4533667723510481,0.4521453931579325,0.4194584011808618,0.3988757084411804,0.3785022265225674,0.3543641445081112,0.31060085115284136,0.2432348712079916,0.17601862799336934,0.14062660053237816,0.08949966897576865,0.03846418536489996,0.0152309620597128,-0.02776046374131604,-0.07864609190988585,-0.11367437725671335,0.0,0.0,0.0,0.0,0.0,0.0,0.0,0.0,0.0,0.0,0.0,0.0,0.0,0.0,0.0,0.0,0.0,0.0,0.0,0.0,0.0,0.0,0.0,0.0,0.0,0.0,0.0,0.0,0.0,0.0,0.0,0.0,0.0,0.0,0.0,0.0,0.0,0.0,0.0,0.0,0.0,0.0,0.0,0.0,0.0,0.0,0.0,0.0,0.0,0.0,0.0,0.0,0.0,0.0,0.0,0.0,0.0,0.0,0.0,0.0,0.0,0.0,0.0,0.0,0.0,0.0,0.0,0.0,0.0,0.0,0.0,0.0,0.0,0.0,0.0,0.0,0.0,0.0,0.0,0.0,0.0,0.0,0.0,0.0,0.0,0.0,0.0,0.0,0.0,0.0,0.0,0.0,0.0,0.0,0.0,0.0,0.0,0.0,0.0,0.0,0.0,0.0,0.0,0.0,0.0,0.0,0.0,0.0,0.0,0.0,0.0,0.0,0.0,0.0,0.0,0.0,0.0,0.0,0.0,0.0,0.0,0.0,0.0,0.0,0.0,0.0,0.0,0.0,0.0,0.0,0.0,0.0,0.0,0.0,0.0,0.0,0.0,0.0,0.0,0.0,0.0,0.0,0.0,0.0,0.0,0.0,0.0,0.0,0.0,0.0,0.0,0.0,0.0,0.0,0.0,0.0,0.0,0.0,0.0,0.0,0.0,0.0,0.0,0.0,0.0,0.0,0.0,0.0,0.0,0.0,0.0,0.0,0.0,0.0,0.0,0.0,0.0,0.0,0.0,0.0,0.0,0.0,0.0,0.0,0.0,0.0,0.0,0.0,0.0,0.0,0.0,0.0,0.0,0.0,0.0,0.0,0.0,0.0,0.0,0.0,0.0,0.0,0.0,0.0,0.0,0.0,0.0,0.0,0.0,0.0,0.0,0.0,0.0,0.0,0.0,0.0,0.0,0.0,0.0,0.0,0.0,0.0,0.0,0.0,0.0,0.0,0.0,0.0,0.0,0.0,0.0,0.0,0
-0.041484390244735214,-0.26159581836873963,-0.6970994650396111,-0.6230712763999776,-0.2494670557415407,-0.004073391228402875,0.18847459259553445,0.3124245315620977,0.3757929347640044,0.4222494726220944,0.4162292178130214,0.425167666179442,0.4491504214553376,0.4644911459025041,0.4673094357255085,0.4457992927952368,0.4475769215200303,0.4529084863491808,0.4618660935422503,0.4388648613655883,0.4235886815956132,0.4042179844777534,0.3887392620089074,0.3494822616452702,0.3736622293770204,0.3781423184070756,0.3392083527118411,0.3599166156033505,0.3452398974030915,0.3625762623474749,0.33670315467030115,0.3270918276492309,0.32586404008356523,0.3449480950083449,0.380424122382508,0.40063907585168745,0.4412858179034905,0.470707396867559,0.4928993780952258,0.519778245278791,0.5236416582239071,0.5639406685024649,0.5733513594308431,0.6113193446692989,0.6580546523417791,0.6660328024026775,0.643188927678786,0.6687642777344451,0.659569812691356,0.6829553145309059,0.7191112767279536,0.7403015061028351,0.7425560295533555,0.7615175318595466,0.7654771740587062,0.7464921252343261,0.7045389989619795,0.6712837638684179,0.6268875986787151,0.6347026804176132,0.5798044344179574,0.5374236375700214,0.4916705411454671,0.4702307046265008,0.4136312384851583,0.3931308880261491,0.34925234441179337,0.3136339597464113,0.2862192523607954,0.2511036286600368,0.2438823311596481,0.20110844838260716,0.17422129167052944,0.1552346277381541,0.1559695318886401,0.1803230313740564,0.1648435626362263,0.16096610273210998,0.1290071779044146,0.15605485961255372,0.1628078648430746,0.18485157253852014,0.16269128506669325,0.14775718682885228,0.16374719719700015,0.16304904985564447,0.16539747071589211,0.17071819074872258,0.20270592957161526,0.2097834703705589,0.21960530158140665,0.16078396424826874,0.017393804534406632,-0.21064509156083774,-0.6779165266271949,-0.7030791088468364,-0.3534762367983007,-0.06085502293054459,0.1748893178983159,0.32613590048451385,0.3771478729946199,0.4151892873290681,0.43640468305248814,0.4250516159661456,0.4604647223833059,0.4595494398611537,0.4501347099245788,0.4600471763512722,0.4418401494048377,0.0,0.0,0.0,0.0,0.0,0.0,0.0,0.0,0.0,0.0,0.0,0.0,0.0,0.0,0.0,0.0,0.0,0.0,0.0,0.0,0.0,0.0,0.0,0.0,0.0,0.0,0.0,0.0,0.0,0.0,0.0,0.0,0.0,0.0,0.0,0.0,0.0,0.0,0.0,0.0,0.0,0.0,0.0,0.0,0.0,0.0,0.0,0.0,0.0,0.0,0.0,0.0,0.0,0.0,0.0,0.0,0.0,0.0,0.0,0.0,0.0,0.0,0.0,0.0,0.0,0.0,0.0,0.0,0.0,0.0,0.0,0.0,0.0,0.0,0.0,0.0,0.0,0.0,0.0,0.0,0.0,0.0,0.0,0.0,0.0,0.0,0.0,0.0,0.0,0.0,0.0,0.0,0.0,0.0,0.0,0.0,0.0,0.0,0.0,0.0,0.0,0.0,0.0,0.0,0.0,0.0,0.0,0.0,0.0,0.0,0.0,0.0,0.0,0.0,0.0,0.0,0.0,0.0,0.0,0.0,0.0,0.0,0.0,0.0,0.0,0.0,0.0,0.0,0.0,0.0,0.0,0.0,0.0,0.0,0.0,0.0,0.0,0.0,0.0,0.0,0.0,0.0,0.0,0.0,0.0,0.0,0.0,0.0,0.0,0.0,0.0,0.0,0.0,0.0,0.0,0.0,0.0,0.0,0.0,0.0,0.0,0.0,0.0,0.0,0.0,0.0,0.0,0.0,0.0,0.0,0.0,0.0,0.0,0.0,0.0,0.0,0.0,0.0,0.0,0.0,0.0,0.0,0.0,0.0,0.0,0.0,0.0,0.0,0.0,0.0,0.0,-0.14777325983822273,-0.2548304378250655,-0.2718848635155621,-0.496098747372197,-0.26985420950229155,-0.0922839348130534,0.1079806031507045,0.23988962431997524,0.30351043531917593,0.3306022308364072,0.33311450831271466,0.31903347623901396,0.3280367650454845,0.3205676912154114,0.3085691982549378,0.30002099089277506,0.3029012310116431,0.2697236772436485,0.2758112878229877,0.2657516863792745,0.24751729250929405,0.2607722845632045,0.2302921610744079,0.22743164645698236,0.18884869173902855,0.18589573271558693,0.21069154215872615,0.15631306488746044,0.1812658001744612,0.17466322187673158,0.18012169914232412,0.18975546059649848,0.1956778342560187,0.1701930196654676,0.2004916802105504,0.1915283751189944,0.21464537059710295,0.250066348612864,0.28593718978536364,0.29059434470706713,0.30368228118605195,0.3489974703027697,0.3314857865569971,0.3343649767150629,0.3418102316399723,0.3934579735155057,0.41405547324399183,0.4313505688512591,0.43743430463498817,0.4877817431636263,0.4952468660309745,0.5153001097252407,0.5241767157207906,0.5971502474658319,0.5717934911864553,0.5827989427806876,0.5826209859862199,0.6069054452645185,0.5882926975587527,0.5980773431490132,0.5887019626826333,0.5720306855048658,0.5797328771460283,0.5840505038983755,0.5492993615118263,0.5586414036530486,0.5565785796277555,0.5272264049243983,0.5061988793452136,0.5291073665604134,0.5047883491985924,0.4728096503377084,0.4648132972360223,0.4728225937137869,0.4611270679519393,0.4177836996523015,0.4061182457218935,0.39041347567484574,0.39041303157971896,0.37039570029203694,0.3619861275647508,0.3492674759046032,0.3598990932164301,0.3462674982271517,0.3558366727036368,0.3528745123567747,0.3333402212258961,0.33676923430650224,0.3195009651744992,0.3131442264001589,0.2264955189406825,0.13473848746911604,-0.013716705866309548,-0.12388004286770216,-0.12056838194499042,-0.8952259820140874,-0.5304857672608906,-0.2504729150106909,-0.0075770700297078785,0.2022579225140328,0.32366439818952364,0.3805064000556575,0.4045696247272877,0.3959447787754616,0.3745287256179818,0.3958710723995373,0.4125170192078222,0.3928563305310714,0.34093143172320445,0.0,0.0,0.0,0.0,0.0,0.0,0.0,0.0,0.0,0.0,0.0,0.0,0.0,0.0,0.0,0.0,0.0,0.0,0.0,0.0,0.0,0.0,0.0,0.0,0.0,0.0,0.0,0.0,0.0,0.0,0.0,0.0,0.0,0.0,0.0,0.0,0.0,0.0,0.0,0.0,0.0,0.0,0.0,0.0,0.0,0.0,0.0,0.0,0.0,0.0,0.0,0.0,0.0,0.0,0.0,0.0,0.0,0.0,0.0,0.0,0.0,0.0,0.0,0.0,0.0,0.0,0.0,0.0,0.0,0.0,0.0,0.0,0.0,0.0,0.0,0.0,0.0,0.0,0.0,0.0,0.0,0.0,0.0,0.0,0.0,0.0,0.0,0.0,0.0,0.0,0.0,0.0,0.0,0.0,0.0,0.0,0.0,0.0,0.0,0.0,0.0,0.0,0.0,0.0,0.0,0.0,0.0,0.0,0.0,0.0,0.0,0.0,0.0,0.0,0.0,0.0,0.0,0.0,0.0,0.0,0.0,0.0,0.0,0.0,0.0,0.0,0.0,0.0,0.0,0.0,0.0,0.0,0.0,0.0,0.0,0.0,0.0,0.0,0.0,0.0,0.0,0.0,0.0,0.0,0.0,0.0,0.0,0.0,0.0,0.0,0.0,0.0,0.0,0.0,0.0,0.0,0.0,0.0,0.0,0.0,0.0,0.0,0.0,0.0,0.0,0.0,0.0,0.0,0.0,0.0,0.0,0.0,0.0,0.0,0.0,0.0,0.0,0.0,0.0,0.0,0.0,0.0,0.0,0.0,0.0,0.0,0.0,0.0,0.0,0.0,0.0,0
0.6198987235547273,0.3605279852513463,0.15176456114892484,0.3002928545730416,0.1693061269418304,-0.23550427576388536,-0.7637407401238815,-0.911897921724846,-0.4658121487232278,0.05944302661810383,0.4035228247776722,0.6302261043117494,0.7281020068980638,0.8014622142598509,0.8099076536402742,0.8230126515886541,0.78879350938121,0.7826046735245372,0.7524543862640504,0.7563243834390249,0.6553909636175548,0.6349705790386994,0.6372684535170373,0.6276397742494576,0.6003779648845886,0.56134987998979,0.5511490795954053,0.5061771949239516,0.4785987926285771,0.4684813474472425,0.4353719492123344,0.4256396137315237,0.3814620578943087,0.3897219843621551,0.3810165053986,0.3843416221568831,0.3418671623256954,0.33467986129685195,0.32809905395032624,0.36269010103120497,0.3979807389660842,0.3819203216134514,0.4071633268981363,0.4216552091733231,0.4312222325635766,0.4532651220350187,0.4530878854133948,0.4886048171396638,0.5077505395981294,0.5394932159722302,0.566492194222295,0.5945572630777783,0.6121305251307594,0.6423808175398102,0.6505910712228631,0.6715004198993794,0.6356556222750387,0.6125189089646558,0.6136664867169195,0.6275183614507678,0.6656446089879108,0.6759410374114351,0.6699712567281985,0.6766603509162763,0.6728354930682462,0.6411087575337334,0.6103951309553091,0.5806649716377494,0.5287324476749699,0.4835033848652409,0.41020983519777854,0.3840588397621023,0.2834537135993057,0.2414803720435477,0.22915134551397898,0.18274824967508052,0.11379925369902515,0.07434960492834722,0.0469845670036948,0.06059530828810289,0.0167305019281395,0.0021636239754779874,-0.04103904714075464,-0.04346898351591942,-0.05147944971192808,-0.053536735149243515,-0.07283194605341459,-0.07466825707213663,-0.09958962308264876,-0.04342579150773148,-0.027740146549229305,-0.029384832988757117,-0.007844506617602675,0.0021512690676611947,0.006391667710200645,0.02224242131443933,0.026551238014851184,0.0019539992926051533,0.041063860489907074,0.02811572306211436,0.0499342427033323,0.08336652791182309,0.07052973016182565,0.08088284438857153,0.1202133827318253,0.13063732277031295,0.11794117116266307,0.09948735049849272,0.15052053924957715,0.14948324345169026,0.1947720297723645,0.18798104246366515,0.2159285577991555,0.23230136729475215,0.21972660561758933,0.27080765254519285,0.2987099678992147,0.29763364128626485,0.31966011435112723,0.33583335674715925,0.3750785854151609,0.4315896307763387,0.4069458949181492,0.405314581537945,0.4208834529863765,0.4883562369527965,0.5093040118568595,0.4894845363954604,0.5156890065686557,0.5936701871305983,0.6134125732143793,0.6443345129249982,0.6227207424521551,0.6411364594006242,0.6879546257130406,0.6820855829441242,0.7045082005219073,0.6567611161236608,0.6429694044437053,0.5936063196067366,0.5606958766252583,0.5731059842449705,0.5960306175853729,0.600449170794847,0.6267974725743024,0.6865669265847875,0.5018315745599151,0.07828796877993516,0.017823461923775985,0.007776054939890031,-0.2297866329877708,-0.6718062244978543,-1.0,-0.4619000764024092,0.03381876101069827,0.3541557383417565,0.505028742010629,0.5965430097169137,0.6114589937228659,0.6193584319577136,0.6435137285853031,0.6782527681833143,0.6715939412903714,0.6467999464456775,0.6502832624539341,0.6879351422084992,0.6325130423339851,0.6114555003665566,0.5843376390719252,0.5686143695263145,0.6048908193529582,0.577485590015603,0.5501510798467438,0.5056008159277046,0.5133698429664324,0.527224986490765,0.5530250662085375,0.50401371276183,0.4786568975490377,0.4828055189591687,0.4933666593027361,0.5567044015682753,0.5744732479409886,0.5814554619365039,0.6471601420570176,0.6848097964397776,0.6712948275681366,0.6934796204936936,0.7050946589414754,0.7177498048264215,0.7198982563549701,0.7347193303373444,0.7564473212984781,0.7503714273726466,0.7743896173983412,0.7706304171808878,0.808560740871157,0.8129365354978969,0.7837574045505702,0.7846900169827778,0.7925728545790761,0.7842404756739358,0.7828297522079671,0.7535907893313863,0.7428057618688696,0.7272936619855285,0.7185994751704741,0.6993231276504995,0.6462726680962216,0.6230769169446401,0.5544426338581788,0.5445102844375224,0.4485213260417227,0.4111287214184829,0.0,0.0,0.0,0.0,0.0,0.0,0.0,0.0,0.0,0.0,0.0,0.0,0.0,0.0,0.0,0.0,0.0,0.0,0.0,0.0,0.0,0.0,0.0,0.0,0.0,0.0,0.0,0.0,0.0,0.0,0.0,0.0,0.0,0.0,0.0,0.0,0.0,0.0,0.0,0.0,0.0,0.0,0.0,0.0,0.0,0.0,0.0,0.0,0.0,0.0,0.0,0.0,0.0,0.0,0.0,0.0,0.0,0.0,0.0,0.0,0.0,0.0,0.0,0.0,0.0,0.0,0.0,0.0,0.0,0.0,0.0,0.0,0.0,0.0,0.0,0.0,0.0,0.0,0.0,0.0,0.0,0.0,0.0,0.0,0.0,0.0,0.07548194815848844,0.13465632144161455,0.2795507729829421,0.2380482536807663,0.5310253012353168,1.193141360166232,1.6165536338396806,-0.9135222194887006,-0.516276054511275,-0.30001686112822257,-0.06789409993891123,0.16280474138344486,0.3574337714287219,0.4350400082926769,0.4709523659898492,0.4941913068643247,0.4816803774691462,0.4855883526652409,0.45389247685322204,0.4213918348739612,0.3823652501943352,0.3600308621160537,0.331298621644164,0.34253609433501964,0.30119035984063164,0.26520218366137666,0.23462797975781774,0.19215798240319465,0.20151723655406853,0.19329928152465525,0.14440292551339945,0.15327998595716885,0.10421502960254944,0.11302323914825567,0.08135274754220014,0.10765279761534932,0.08199398131807929,0.07967145821842468,0.08915570953249155,0.03524568797227879,0.07427128282329602,0.049994840967334114,0.06086285851703404,0.13007388234641296,0.12454247192755592,0.11956078047998896,0.17305548483447394,0.19245726548903275,0.22411476707549774,0.2391279726749552,0.3243614359706849,0.3525119863304496,0.3930765063140816,0.4287258475394602,0.4421288962419325,0.5201415170860352,0.5065094126221618,0.5170250589567892,0.5690775621497068,0.6048057438709904,0.5952870031969119,0.6563028291450608,0.6894652056223569,0.7526665181092134,0.7706651599075817,0.7492517448100433,0.7405193097537924,0.7155211615940792,0.6800366119424122,0.6687828175985016,0.6701672587085847,0.6031346567991946,0.5950046266774226,0.5647155233602239,0.5064504261058395,0.4780607207417097,0.4100530005495117,0.34869715968334897,0.2881664810031086,0.3210333413825046,0.2388778798051699,0.17478741905731696,0.16923553459493576,0.123776098525686,0.03836297427917907,0.011350243904158609,-0.03255673912954682,-0.04131041780969618,-0.043896126057051454,-0.02877728139107243,-0.03650769222845667,-0.0671204412325594,-0.02803258989515093,-0.0466096365005398,-0.03604788756134073,0.015213079060880104,-0.025970003916161333,0.008250317217531656,-0.0036902646177452672,0.025022146363570058,0.03649468255214198,-0.0098007950956926,-0.009685494126973048,0.007889764134361769,0.031339932162719464,0.008561931072076681,0.07267763115839597,0.04424149373270565,0.021645275540348057,0.05118595108998377,0.08654783372307233,0.10456811908652326,0.11102499288208488,0.12327268708851293,0.12393517120678978,0.17667178219768293,0.1599161314644567,0.20678546763872874,0.18413515006659212,0.2655985857832789,0.23699319570857275,0.24879699997382035,0.289414866097949,0.34725041761488595,0.3470347008374116,0.375568993472659,0.3807340086430221,0.4493274110371616,0.4771315712332474,0.5219985808188341,0.5318007391063927,0.5528085729151143,0.5386773971196717,0.5240957463750926,0.5090197545966106,0.5223443580147347,0.5119259639379801,0.4892894980998876,0.5122636030745907,0.5286970683715043,0.5327423986524389,0.5243377396526646,0.5034185733954583,0.3946700609509786,0.28484681394295863,0.0407466574103701,-0.030924381372973913,0.09291357775218116,0.128564271144843,0.1917226051534313,0.7743213396271045,1.274306494188519,-0.98258565519729,-0.5901799600109188,-0.3094774385645809,0.04481379835565424,0.2933531131158898,0.407295042542075,0.485134916988225,0.5269651928335175,0.5097227625473391,0.4971661521551341,0.495168493480519,0.4690824406047398,0.43056444823698586,0.4259983330270528,0.4380946286556785,0.3916788932239213,0.3562816083297329,0.3146070287945764,0.32460532729629216,0.3110945586251432,0.2915037074855787,0.2658953494328508,0.2401188870624753,0.26054038540483143,0.2230293103670249,0.2260437847122854,0.21175713296965126,0.24389552518406776,0.2299003895271759,0.21034247954542407,0.2431562529597176,0.28787427827893897,0.29823962367190465,0.297453332641657,0.2971383883755172,0.32628114047054746,0.3270421844498464,0.2994633300188246,0.3361973046127939,0.3678233707039752,0.3712253862484776,0.3638033619971675,0.4208382981619945,0.43817255461525306,0.479506639242989,0.4754083242160418,0.4895735290244882,0.4988715277347616,0.5091105693396583,0.508731554797931,0.5324791159858977,0.5456359264164856,0.6118828347066664,0.5749431480593243,0.6258341877912583,0.6893093107986592,0.6669656065715741,0.6456218239351421,0.6484222467396535,0.6174719469030586,0.5816970226140957,0.5295024927901582,0.0,0.0,0.0,0.0,0.0,0.0,0.0,0.0,0.0,0.0,0.0,0.0,0.0,0.0,0.0,0.0,0.0,0.0,0.0,0.0,0.0,0.0,0.0,0.0,0.0,0.0,0.0,0.0,0.0,0.0,0.0,0.0,0.0,0.0,0.0,0.0,0.0,0.0,0.0,0.0,0.0,0.0,0.0,0.0,0.0,0.0,0.0,0.0,0.0,0.0,0.0,0.0,0.0,0.0,0.0,0.0,0.0,0.0,0.0,0.0,0.0,0.0,0.0,0.0,0.0,0.0,0.0,0.0,0.0,0.0,0.0,0.0,0.0,0.0,0.0,0.0,0.0,0.0,0.0,0.0,0.0,0.0,0.0,0.0,0.0,0.0,0
0.7358092422516415,0.5271327115765028,0.12469511563731805,-0.018046304267251068,-0.11463741333121358,-0.4373185808551783,-0.7994215772697264,-0.8328119523596091,-0.3453679663762483,0.15609263536249496,0.4796100894796343,0.6146485275156556,0.6627261001074687,0.698677785328662,0.7066229099319978,0.6920213867378587,0.7243618338217178,0.7397289125486968,0.7008837617954304,0.7093203382615467,0.6744323791189413,0.665690670861921,0.645842230540162,0.6256549255272164,0.626565433713758,0.5899670067537811,0.5799782203492567,0.5593303229485237,0.5334398220219124,0.5450725674370958,0.5782955233571321,0.6331809881746517,0.6030779715219344,0.5787650520993773,0.5656414753913322,0.595783692377574,0.6105529881401757,0.5833237880275686,0.6048599016342514,0.5951695862834064,0.6183306113304002,0.6423694127282058,0.6566534142332865,0.6878989668039992,0.7041229196261255,0.7320349008961169,0.7823329586034159,0.8336953613781404,0.8061002476801103,0.8489704416502191,0.8555957834495569,0.8686704245828357,0.8508439406137981,0.8448018617161148,0.8345292453382486,0.8306870242400377,0.8225878790785459,0.8475645158529468,0.825553090612011,0.8045499983212101,0.7898593472674698,0.7494290839387664,0.7259074836242542,0.6712267367773435,0.5906756029553932,0.5695797835441301,0.5011653114423431,0.4707520867588266,0.3929048681234412,0.3209225768731696,0.23339789172273895,0.21564228405672728,0.14486128356892092,0.12770819589956567,0.05205878795288296,0.02456500252172127,0.03982210495811722,-0.01963117935777661,-0.04180746999845299,-0.08013413736260434,-0.1026582623130856,-0.12544349174693264,-0.09517546179248393,-0.09192838804978043,-0.09971908689553126,-0.08121156205303368,-0.0417485028454236,-0.013344982818125687,-0.006668029952247113,-0.04839146404793752,-0.021115935110808687,0.02180986839023669,0.027039264000131416,0.021265758176517286,-0.0008333970041045032,-0.02857299620161353,0.028772543058877286,0.02714664366487829,0.03593337920665435,0.060484449171610916,0.04745515487475367,0.04488487262744025,0.047452542823886425,0.07651698075462803,0.046716367164751534,0.03276909613854222,0.01868099048812446,0.020473828364962133,0.05416929451556673,0.03440459389870952,-0.0014548824981656405,0.03731628293078235,0.06535499048872044,0.08267427172358809,0.04659867249527814,0.03184476230333313,0.022416539963608227,0.0503420238453777,0.062272802409028036,0.05288439118205683,0.027524034056222627,0.02355482968614881,0.024979540464920808,0.031808870603885785,0.03338135968841505,-0.002308691197020444,-0.00054675059201323,0.0066615350067728675,0.046006789549484714,0.032123186531722143,0.06640536465992357,0.05281506705153488,0.060730320585417365,0.042136451054088926,0.055738877881198634,0.053522412525405454,0.0354957665282094,0.0496915625962782,0.0641019479953958,0.06806290099007993,0.08292619851992851,0.13004327721003406,0.1080367021793512,0.11296112330350805,0.13948627285602302,0.11824907993515744,0.10261423308295256,0.09792165081881946,0.12018277831927685,0.1427204122394954,0.16553684764143795,0.1672895865284587,0.17465948199690412,0.17697441164623098,0.21692157841985327,0.1877787441932984,0.1962633807996704,0.18367540539011395,0.19803415108160385,0.22332579424444632,0.21685542175750872,0.19995924224032746,0.19930839989946664,0.2148929398245957,0.2680459900199314,0.25737114714984555,0.2468872834369987,0.28460392465590545,0.3064729449977912,0.3124770340038987,0.3399494878997024,0.3248376631069083,0.3418237327673384,0.3642038684159009,0.3812805920612497,0.387690624556834,0.3887408200814158,0.4110801738171812,0.4226595187367115,0.444787831053086,0.456083814768696,0.4725160889957346,0.4566907937859535,0.5312923025347607,0.5201855927919382,0.5247060185808655,0.5341299158500861,0.5377309970180506,0.5407883634460396,0.5592504675686215,0.5930549982861373,0.5034003317790344,0.4716430708009725,0.481704566130893,0.5441839096530663,0.5682934073103334,0.5005947831749437,0.5224317938741262,0.4469603224357592,0.08199761986461344,-0.10297483448319623,-0.10270969941955137,-0.32815940054972303,-0.7153608381493671,-0.6667177509374129,-0.1341759643592502,0.22069139239588412,0.3979904000083239,0.4938743932559011,0.5244544190023972,0.5218471143320368,0.502158434464539,0.5188438644330082,0.5293080209239152,0.5229690455892281,0.5105865129973567,0.4975813630073456,0.4840359626815377,0.4646941713113227,0.4556415074648239,0.4409450470544868,0.4046695877852197,0.3895739411421997,0.3530385774364767,0.3378183369355825,0.3333060960727937,0.3128849825972921,0.3086326762332827,0.29926509363869025,0.31152078708528896,0.3134405940138806,0.3317600127668352,0.3131726765215019,0.31109095693790045,0.0,0.0,0.0,0.0,0.0,0.0,0.0,0.0,0.0,0.0,0.0,0.0,0.0,0.0,0.0,0.0,0.0,0.0,0.0,0.0,0.0,0.0,0.0,0.0,0.0,0.0,0.0,0.0,0.0,0.0,0.0,0.0,0.0,0.0,0.0,0.0,0.0,0.0,0.0,0.0,0.0,0.0,0.0,0.0,0.0,0.0,0.0,0.0,0.0,0.0,0.0,0.0,0.0,0.0,0.0,0.0,0.0,0.0,0.0,0.0,0.0,0.0,0.0,0.0,0.0,0.0,0.27117635150608155,0.09950627014380738,0.17732967115953405,0.12037191065187434,0.12064760339785295,0.4608831000052655,0.879530121701943,-1.0033618007620697,-0.6095776314530271,-0.3083048781721469,-0.01410400134275866,0.26244547002077395,0.4093809693656166,0.4801552336998241,0.4641867147569632,0.4736199203695771,0.455180421648396,0.4569757990231457,0.447071059059393,0.4202090227643928,0.3978103751107886,0.3852856404336992,0.3720352944239576,0.41149012471383534,0.3649823436502087,0.3553070794720312,0.3451770395824353,0.3186472343057028,0.275779007673328,0.2966724084426849,0.28533745095959656,0.27384714294712537,0.30494510516935225,0.2719650329588144,0.2389917325748991,0.2167484518104604,0.22129326336382693,0.2206589774138374,0.26825361549920124,0.22005136089068134,0.21483410839021014,0.2313020566188137,0.22681025057042864,0.24408889655489666,0.2618348284611655,0.27475171932611026,0.3309021316538309,0.3342747178581389,0.35427309163042625,0.37492287746230746,0.4656242463061269,0.4663266403419618,0.4784421469713582,0.4806520650875149,0.537011619199084,0.5248129353096064,0.5294502290658593,0.5456027543596192,0.5732831376956543,0.6018292378366867,0.6045679875373404,0.6081835090474172,0.6073407825919609,0.6020377673426068,0.5869333659029407,0.5886995898725316,0.5219490990372481,0.4827162850656582,0.4763205921905106,0.4653908921500341,0.4125536750794968,0.3978255411707146,0.3358044120588887,0.3225108956321639,0.2885473049683854,0.255226678281245,0.20117245213481594,0.1850470849218308,0.13211153256934322,0.13837846142135804,0.09175510256288437,0.06157267056727321,0.03712162327031188,0.0076921106444346595,-0.005409783761220151,0.019121985141932533,0.02788969827402091,0.036863799179025006,0.019326433039339563,-0.003416260504405905,0.005949821148662976,0.0313789065028013,0.014137035400064227,-0.008461551657564301,0.027577414467406174,0.004824331379224557,-0.05007800487324085,-0.046454583993137434,-0.04303419446897845,-0.0611890725548408,-0.03691104843013898,-0.050258675644087,-0.053222524457016064,-0.029804509739891856,-0.01736168886522364,-0.04257624804882194,-0.030744346727456955,-0.035222576333616085,0.008027829424160941,0.00830440692212058,-0.02371097018403964,0.002703828201394099,0.0021845291997907423,0.022767343016796792,-0.015576007803869097,0.009894840281992572,0.01915297570212675,-0.0037963242202823343,0.021100479627532573,0.0031446513567638915,0.0383980448209919,0.030825783041616938,0.017793293653233882,0.01532177070497536,0.01808823982295852,0.031441689752720464,-0.01930927916345218,-0.000751449090388766,0.03376953694381592,0.03624412716286772,0.03870289890483841,0.05183216883061708,0.043629901173504015,0.040790019511459566,0.06467020940880126,0.07259571411010789,0.11793981106337224,0.09399481881391436,0.12350132036587867,0.11575863418384577,0.17749819619885354,0.16999394979847846,0.16795974544478565,0.17674032539631362,0.17499949279218982,0.1574082266623248,0.12930867076743832,0.06936208250643275,0.10563762893068517,0.07805905761777547,0.08801456129983952,0.08214736635375909,0.07113249745325025,0.12434078704070115,0.10303793719467992,0.09260186258356234,0.13038578390880728,0.1523580814439628,0.1478466821750244,0.1542029300748107,0.13407315178481527,0.1514872803504789,0.12640204211979128,0.13351798206430554,0.1568226754550399,0.20164710942964867,0.2039532287786316,0.19041430774726556,0.18770260081468373,0.20648135079607002,0.23073276267292045,0.2391019891558401,0.2475851683405773,0.2561691832205244,0.2648396788632317,0.30026111881101697,0.2983843047174788,0.33389505339817666,0.3374051534154547,0.3942692999163547,0.3763997064566825,0.4011635289960336,0.4205094257072324,0.4344082277226881,0.4054765245787241,0.4564093296946272,0.4644427153567712,0.4775631074572563,0.5010664507615123,0.4975581433063374,0.5203534154866001,0.5160446126237179,0.5379418755547654,0.5539764470675652,0.5534209596971098,0.5468893555527029,0.4862965911333453,0.3555710076760796,0.13863851493499266,0.13424841679320024,0.17157957589721007,0.005105905553531017,0.1950394606554408,0.6025736683647758,-0.7947140313942008,-0.4697885528633571,-0.20487907726763574,0.08543679652840215,0.278496158471203,0.3370119891494181,0.3304162739536404,0.32813931321451745,0.3195694572192751,0.27274933610202623,0.2837844588888791,0.2673542954786121,0.22351321467389745,0.2216825067397071,0.22456194709220487,0.20018622259915744,0.20730123500892084,0.14457128921463616,0.16145258721769604,0.1139195156355262,0.08205848811635902,0.055243011020524126,0.0601983194648672,0.043609074389128165,0.048207993295910544,0.026015237952121233,0.02509908663916198,0.024159429328467253,0.0339121496808586,0.06507301056001065,0.0,0.0,0.0,0.0,0.0,0.0,0.0,0.0,0.0,0.0,0.0,0.0,0.0,0.0,0.0,0.0,0.0,0.0,0.0,0.0,0.0,0.0,0.0,0.0,0.0,0.0,0.0,0.0,0.0,0.0,0.0,0.0,0.0,0.0,0.0,0.0,0.0,0.0,0.0,0.0,0.0,0.0,0.0,0.0,0.0,0.0,0.0,0.0,0.0,0.0,0.0,0.0,0.0,0.0,0.0,0.0,0.0,0.0,0.0,0.0,0.0,0.0,0.0,0.0,0.0,0.0,0
