10:39:10.642;6065537.0;6352700.0
10:39:10.682;6065723.0;6353153.0
10:39:10.722;6065748.0;6352209.0
10:39:10.762;6065791.0;6352340.0
10:39:10.802;6065849.0;6352469.0
10:39:10.842;6065959.0;6352664.0
10:39:10.882;6065991.0;6353082.0
10:39:10.922;6066138.0;6353919.0
10:39:10.962;6066228.0;6354902.0
10:39:11.002;6066508.0;6355613.0
10:39:11.042;6066557.0;6356412.0
10:39:11.082;6067061.0;6356729.0
10:39:11.122;6074092.0;6359192.0
10:39:11.162;6066505.0;6358239.0
10:39:11.202;6066104.0;6357026.0
10:39:11.242;6066053.0;6356984.0
10:39:11.282;6065897.0;6356601.0
10:39:11.322;6065604.0;6355434.0
10:39:11.362;6065692.0;6354608.0
10:39:11.402;6066343.0;6354051.0
10:39:11.442;6066239.0;6354174.0
10:39:11.482;6066056.0;6353592.0
10:39:11.522;6065918.0;6352623.0
10:39:11.562;6065915.0;6352330.0
10:39:11.602;6066011.0;6352536.0
10:39:11.642;6066107.0;6352900.0
10:39:11.682;6066067.0;6353363.0
10:39:11.722;6066269.0;6353206.0
10:39:11.762;6066436.0;6353933.0
10:39:11.802;6066603.0;6354852.0
10:39:11.842;6066721.0;6355527.0
10:39:11.882;6066815.0;6356289.0
10:39:11.922;6066960.0;6356950.0
10:39:11.962;6066966.0;6357603.0
10:39:12.002;6066942.0;6358022.0
10:39:12.042;6066972.0;6357875.0
10:39:12.082;6066903.0;6357718.0
10:39:12.122;6070042.0;6360542.0
10:39:12.162;6066633.0;6356281.0
10:39:12.202;6066244.0;6355079.0
10:39:12.242;6065934.0;6353924.0
10:39:12.282;6065912.0;6354055.0
10:39:12.322;6065627.0;6353253.0
10:39:12.362;6065371.0;6352081.0
10:39:12.402;6066056.0;6351678.0
10:39:12.442;6066358.0;6352286.0
10:39:12.482;6066450.0;6353262.0
10:39:12.522;6066452.0;6353379.0
10:39:12.562;6066509.0;6353720.0
10:39:12.602;6066630.0;6354864.0
10:39:12.642;6066858.0;6355640.0
10:39:12.682;6067114.0;6356648.0
10:39:12.722;6067247.0;6357602.0
10:39:12.762;6067323.0;6358245.0
10:39:12.802;6067333.0;6358928.0
10:39:12.842;6067314.0;6358917.0
10:39:12.882;6067292.0;6358744.0
10:39:12.922;6067321.0;6358626.0
10:39:12.962;6067264.0;6358366.0
10:39:13.002;6067124.0;6357909.0
10:39:13.042;6067030.0;6357081.0
10:39:13.082;6066919.0;6356449.0
10:39:13.122;6066577.0;6355228.0
10:39:13.162;6074378.0;6360409.0
10:39:13.202;6066485.0;6354623.0
10:39:13.242;6066197.0;6353162.0
10:39:13.282;6066129.0;6353132.0
10:39:13.322;6066101.0;6353369.0
10:39:13.362;6066080.0;6353299.0
10:39:13.402;6066266.0;6353970.0
10:39:13.442;6067234.0;6356682.0
10:39:13.482;6067512.0;6357848.0
10:39:13.522;6067508.0;6358547.0
10:39:13.562;6067534.0;6358566.0
10:39:13.602;6067531.0;6358531.0
10:39:13.642;6067542.0;6358518.0
10:39:13.682;6067466.0;6358127.0
10:39:13.722;6067441.0;6357567.0
10:39:13.762;6067310.0;6356655.0
10:39:13.802;6067287.0;6355831.0
10:39:13.842;6067122.0;6355271.0
10:39:13.882;6066989.0;6354422.0
10:39:13.922;6067031.0;6353627.0
10:39:13.962;6066935.0;6353145.0
10:39:14.002;6067031.0;6353214.0
10:39:14.042;6067077.0;6353452.0
10:39:14.082;6067114.0;6353986.0
10:39:14.122;6067314.0;6354699.0
10:39:14.162;6068210.0;6355706.0
10:39:14.202;6070860.0;6356888.0
10:39:14.242;6067419.0;6357506.0
10:39:14.282;6067274.0;6357072.0
10:39:14.322;6067228.0;6357801.0
10:39:14.362;6067205.0;6358031.0
10:39:14.402;6067001.0;6357463.0
10:39:14.442;6067192.0;6357029.0
10:39:14.482;6067636.0;6356758.0
10:39:14.522;6067669.0;6356999.0
10:39:14.562;6067383.0;6356448.0
10:39:14.602;6067189.0;6355366.0
10:39:15.040;6067121.0;6354788.0
10:39:15.080;6067377.0;6354547.0
10:39:15.120;6067409.0;6355062.0
10:39:15.160;6067584.0;6355847.0
10:39:15.200;6067736.0;6356607.0
10:39:15.240;6067823.0;6357364.0
10:39:15.280;6067990.0;6358168.0
10:39:15.320;6068062.0;6358906.0
10:39:15.360;6067836.0;6358552.0
10:39:15.400;6075503.0;6364088.0
10:39:15.440;6067963.0;6359252.0
10:39:15.480;6067526.0;6357785.0
10:39:15.520;6067228.0;6356947.0
10:39:15.560;6067186.0;6356172.0
10:39:15.600;6066902.0;6356063.0
10:39:15.640;6066818.0;6355093.0
10:39:15.680;6067496.0;6354415.0
10:39:15.720;6067468.0;6354611.0
10:39:15.760;6067374.0;6354430.0
10:39:15.800;6067396.0;6353864.0
10:39:15.840;6067396.0;6354004.0
10:39:15.880;6067498.0;6354431.0
10:39:15.920;6067649.0;6354946.0
10:39:15.960;6067810.0;6355809.0
10:39:16.000;6067977.0;6356509.0
10:39:16.040;6068101.0;6357244.0
10:39:16.080;6068280.0;6358118.0
10:39:16.120;6068354.0;6358776.0
10:39:16.160;6068369.0;6359107.0
10:39:16.200;6068319.0;6359202.0
10:39:16.240;6068304.0;6359058.0
10:39:16.280;6068341.0;6358795.0
10:39:16.320;6068251.0;6359007.0
10:39:16.360;6068209.0;6358437.0
10:39:16.400;6068081.0;6356878.0
10:39:16.440;6075636.0;6360454.0
10:39:16.480;6067689.0;6356583.0
10:39:16.520;6067294.0;6354676.0
10:39:16.560;6067107.0;6353935.0
10:39:16.600;6066998.0;6353644.0
10:39:16.640;6066861.0;6353379.0
10:39:16.680;6067048.0;6353316.0
10:39:16.720;6067831.0;6353674.0
10:39:16.760;6068060.0;6355231.0
10:39:16.800;6068043.0;6356385.0
10:39:16.840;6068188.0;6356866.0
10:39:16.880;6068147.0;6357716.0
10:39:16.920;6068338.0;6358096.0
10:39:16.960;6068508.0;6358693.0
10:39:17.000;6068634.0;6359462.0
10:39:17.040;6068691.0;6359846.0
10:39:17.080;6068664.0;6359629.0
10:39:17.120;6068657.0;6359526.0
10:39:17.160;6068548.0;6359070.0
10:39:17.200;6068520.0;6358366.0
10:39:17.240;6068339.0;6357516.0
10:39:17.280;6068270.0;6356946.0
10:39:17.320;6068134.0;6356416.0
10:39:17.360;6068042.0;6355809.0
10:39:17.400;6068068.0;6355413.0
10:39:17.440;6068405.0;6354763.0
10:39:17.480;6075249.0;6356760.0
10:39:17.520;6067953.0;6356083.0
10:39:17.560;6067693.0;6355587.0
10:39:17.600;6067649.0;6355639.0
10:39:17.640;6067805.0;6356970.0
10:39:17.680;6067827.0;6357318.0
10:39:17.720;6068175.0;6357950.0
10:39:17.760;6068897.0;6359047.0
10:39:17.800;6069031.0;6360262.0
10:39:17.840;6068888.0;6360435.0
10:39:17.880;6068755.0;6359991.0
10:39:17.920;6068739.0;6360135.0
10:39:17.960;6068775.0;6360313.0
10:39:18.000;6068685.0;6359902.0
10:39:18.040;6068777.0;6359496.0
10:39:18.080;6068484.0;6358659.0
10:39:18.120;6068500.0;6358095.0
10:39:18.160;6068082.0;6357502.0
10:39:18.200;6068431.0;6357239.0
10:39:18.240;6068688.0;6357357.0
10:39:18.280;6068459.0;6357133.0
10:39:18.320;6068658.0;6357734.0
10:39:18.360;6068694.0;6358099.0
10:39:18.400;6068720.0;6358775.0
10:39:18.440;6068858.0;6359482.0
10:39:18.480;6069277.0;6359602.0
10:39:18.520;6076163.0;6362500.0
10:39:18.560;6068723.0;6361650.0
10:39:18.600;6068508.0;6360858.0
10:39:18.640;6068417.0;6360929.0
10:39:18.680;6068371.0;6360815.0
10:39:18.720;6068195.0;6359962.0
10:39:18.760;6068215.0;6359089.0
10:39:18.800;6068772.0;6358821.0
10:39:18.840;6068744.0;6358522.0
10:39:18.880;6068558.0;6357804.0
10:39:18.920;6068433.0;6356922.0
10:39:18.960;6068317.0;6356456.0
10:39:19.000;6068374.0;6356473.0
10:39:18.883;6068483.0;6356510.0
10:39:18.923;6068598.0;6356607.0
10:39:18.963;6068581.0;6356575.0
10:39:19.003;6068654.0;6356874.0
10:39:19.043;6068805.0;6357215.0
10:39:19.083;6068992.0;6357725.0
10:39:19.123;6069025.0;6358141.0
10:39:19.163;6075376.0;6363709.0
10:39:19.203;6069205.0;6359929.0
10:39:19.243;6068959.0;6358752.0
10:39:19.283;6068698.0;6358461.0
10:39:19.323;6068591.0;6358588.0
10:39:19.363;6068369.0;6358072.0
10:39:19.403;6068245.0;6357275.0
10:39:19.443;6068841.0;6356614.0
10:39:19.483;6068947.0;6356626.0
10:39:19.523;6068990.0;6356538.0
10:39:19.563;6068653.0;6355836.0
10:39:19.603;6068545.0;6355743.0
10:39:19.643;6068477.0;6355264.0
10:39:19.683;6068608.0;6355073.0
10:39:19.723;6068618.0;6355169.0
10:39:19.763;6068670.0;6355440.0
10:39:19.803;6068818.0;6355705.0
10:39:19.843;6068868.0;6356285.0
10:39:19.883;6069047.0;6357042.0
10:39:19.923;6069143.0;6357748.0
10:39:19.963;6069290.0;6358350.0
10:39:20.003;6069378.0;6358997.0
10:39:20.043;6069465.0;6359812.0
10:39:20.083;6069405.0;6360140.0
10:39:20.123;6069432.0;6360072.0
10:39:20.163;6069111.0;6359496.0
10:39:20.203;6076766.0;6364780.0
10:39:20.243;6069095.0;6359144.0
10:39:20.283;6068601.0;6357161.0
10:39:20.323;6068321.0;6356287.0
10:39:20.363;6068172.0;6355685.0
10:39:20.403;6067942.0;6354734.0
10:39:20.443;6067973.0;6353740.0
10:39:20.483;6068621.0;6353788.0
10:39:20.523;6068839.0;6354557.0
10:39:20.563;6068805.0;6355141.0
10:39:20.603;6068775.0;6355229.0
10:39:20.643;6068778.0;6355524.0
10:39:20.683;6068990.0;6356482.0
10:39:20.723;6069260.0;6357235.0
10:39:20.763;6069250.0;6355696.0
10:39:20.803;6069526.0;6361342.0
10:39:20.843;6069581.0;6358638.0
10:39:20.883;6069543.0;6359813.0
10:39:20.923;6069580.0;6360201.0
10:39:20.963;6069524.0;6359972.0
10:39:21.003;6069550.0;6359797.0
10:39:21.043;6069461.0;6359375.0
10:39:21.083;6069325.0;6358695.0
10:39:21.123;6069187.0;6357958.0
10:39:21.163;6069093.0;6357468.0
10:39:21.203;6069474.0;6356505.0
10:39:21.243;6076122.0;6357801.0
10:39:21.283;6068789.0;6356519.0
10:39:21.323;6068520.0;6355320.0
10:39:21.363;6068422.0;6355498.0
10:39:21.403;6068312.0;6355852.0
10:39:21.443;6068377.0;6355809.0
10:39:21.483;6068751.0;6356596.0
10:39:21.523;6069501.0;6358029.0
10:39:21.563;6069741.0;6359350.0
10:39:21.603;6069745.0;6360046.0
10:39:21.643;6069644.0;6360296.0
10:39:21.683;6069631.0;6360830.0
10:39:21.723;6069689.0;6361166.0
10:39:21.763;6069699.0;6361027.0
10:39:21.803;6069574.0;6360701.0
10:39:21.843;6069505.0;6360079.0
10:39:21.883;6069430.0;6359526.0
10:39:21.923;6069277.0;6358905.0
10:39:21.963;6069261.0;6358354.0
10:39:22.003;6069123.0;6357649.0
10:39:22.043;6069032.0;6357214.0
10:39:22.083;6069126.0;6357131.0
10:39:22.123;6069137.0;6357263.0
10:39:22.163;6069202.0;6357677.0
10:39:22.203;6069311.0;6357644.0
10:39:22.243;6070740.0;6360006.0
10:39:22.283;6070596.0;6358577.0
10:39:22.323;6069247.0;6359315.0
10:39:22.363;6069178.0;6359348.0
10:39:22.403;6069185.0;6359963.0
10:39:22.443;6069080.0;6360256.0
10:39:22.483;6068977.0;6359989.0
10:39:22.523;6069326.0;6360360.0
10:39:22.563;6069736.0;6360458.0
10:39:22.603;6069765.0;6360379.0
10:39:22.643;6069463.0;6359647.0
10:39:22.683;6069388.0;6358894.0
10:39:22.723;6069288.0;6358815.0
10:39:22.763;6069219.0;6358454.0
10:39:22.803;6069137.0;6357877.0
10:39:22.843;6069124.0;6357410.0
10:39:23.371;6069131.0;6357239.0
10:39:23.411;6069152.0;6357822.0
10:39:23.451;6069180.0;6357686.0
10:39:23.491;6069219.0;6357608.0
10:39:23.531;6069174.0;6357621.0
10:39:23.571;6076432.0;6363950.0
10:39:23.611;6069548.0;6359623.0
10:39:23.651;6069142.0;6358808.0
10:39:23.691;6069138.0;6359460.0
10:39:23.731;6069204.0;6360043.0
10:39:23.771;6069090.0;6360016.0
10:39:23.811;6069022.0;6359947.0
10:39:23.851;6069678.0;6360022.0
10:39:23.891;6069936.0;6360132.0
10:39:23.931;6069814.0;6359883.0
10:39:23.971;6069577.0;6359035.0
10:39:24.011;6069580.0;6358349.0
10:39:24.051;6069422.0;6358701.0
10:39:24.091;6069436.0;6358061.0
10:39:24.131;6069394.0;6357486.0
10:39:24.171;6069327.0;6356926.0
10:39:24.211;6069273.0;6356196.0
10:39:24.251;6069317.0;6356201.0
10:39:24.291;6069349.0;6356058.0
10:39:24.331;6069325.0;6356068.0
10:39:24.371;6069405.0;6356535.0
10:39:24.411;6069526.0;6357035.0
10:39:24.451;6069613.0;6357826.0
10:39:24.491;6069811.0;6358541.0
10:39:24.531;6069873.0;6359872.0
10:39:24.571;6069816.0;6360166.0
10:39:24.611;6077237.0;6365878.0
10:39:24.651;6069814.0;6360864.0
10:39:24.691;6069405.0;6359369.0
10:39:24.731;6069173.0;6358037.0
10:39:24.771;6068932.0;6357658.0
10:39:24.811;6068704.0;6356403.0
10:39:24.851;6068648.0;6354889.0
10:39:24.891;6069122.0;6354763.0
10:39:24.931;6069272.0;6355050.0
10:39:24.971;6069274.0;6355339.0
10:39:25.011;6069212.0;6355279.0
10:39:25.051;6069256.0;6355413.0
10:39:25.091;6069319.0;6356079.0
10:39:25.131;6069517.0;6356684.0
10:39:25.171;6069655.0;6357560.0
10:39:25.211;6069854.0;6358333.0
10:39:25.251;6069953.0;6358906.0
10:39:25.291;6070071.0;6359607.0
10:39:25.331;6070144.0;6360154.0
10:39:25.371;6070163.0;6360516.0
10:39:25.411;6070037.0;6360132.0
10:39:25.451;6069973.0;6360269.0
10:39:25.491;6069951.0;6360460.0
10:39:25.531;6069876.0;6360945.0
10:39:25.571;6069744.0;6360567.0
10:39:25.611;6069471.0;6359679.0
10:39:25.651;6076814.0;6364801.0
10:39:25.691;6069305.0;6359592.0
10:39:25.731;6068858.0;6357755.0
10:39:25.771;6068711.0;6357213.0
10:39:25.811;6068609.0;6357113.0
10:39:25.851;6068614.0;6356818.0
10:39:25.891;6068631.0;6356958.0
10:39:25.931;6069406.0;6358422.0
10:39:25.971;6069690.0;6358747.0
10:39:26.011;6069789.0;6359715.0
10:39:26.051;6069723.0;6360157.0
10:39:26.091;6069959.0;6360870.0
10:39:26.131;6069998.0;6361978.0
10:39:26.171;6070094.0;6362635.0
10:39:26.211;6069961.0;6362992.0
10:39:26.251;6070271.0;6363288.0
10:39:26.291;6070122.0;6363021.0
10:39:26.331;6069985.0;6362894.0
10:39:26.371;6069894.0;6362609.0
10:39:26.411;6069862.0;6361783.0
10:39:26.451;6069866.0;6361540.0
10:39:26.491;6069811.0;6361040.0
10:39:26.531;6069655.0;6360591.0
10:39:26.571;6069710.0;6360641.0
10:39:26.611;6069569.0;6360961.0
10:39:26.651;6069542.0;6360590.0
10:39:26.691;6076504.0;6367752.0
10:39:26.731;6069955.0;6361720.0
10:39:26.771;6069742.0;6361217.0
10:39:26.811;6069797.0;6362195.0
10:39:26.851;6069868.0;6362951.0
10:39:26.891;6069946.0;6362853.0
10:39:26.931;6069983.0;6363082.0
10:39:26.971;6070463.0;6363914.0
10:39:27.011;6070687.0;6364596.0
10:39:27.051;6070483.0;6364393.0
10:39:27.091;6070344.0;6363724.0
10:39:27.131;6070012.0;6362907.0
10:39:27.171;6069987.0;6362516.0
10:39:27.211;6069861.0;6361741.0
10:39:27.251;6069869.0;6361512.0
10:39:27.291;6069720.0;6360870.0
10:39:27.331;6069817.0;6360526.0
10:39:28.192;6069777.0;6360666.0
10:39:28.232;6070514.0;6360267.0
10:39:28.272;6070469.0;6359912.0
10:39:28.312;6071217.0;6359571.0
10:39:28.352;6071368.0;6357239.0
10:39:28.392;6069758.0;6356511.0
10:39:28.432;6069380.0;6354551.0
10:39:28.472;6069149.0;6353624.0
10:39:28.512;6069171.0;6353351.0
10:39:28.552;6068863.0;6353076.0
10:39:28.592;6069277.0;6352337.0
10:39:28.632;6069788.0;6353206.0
10:39:28.672;6070054.0;6353949.0
10:39:28.712;6070109.0;6354641.0
10:39:28.752;6069981.0;6355253.0
10:39:28.792;6070151.0;6356345.0
10:39:28.832;6070380.0;6357288.0
10:39:28.872;6070435.0;6358041.0
10:39:28.912;6070558.0;6359198.0
10:39:28.952;6070522.0;6360567.0
10:39:28.992;6070425.0;6360830.0
10:39:29.032;6070478.0;6360568.0
10:39:29.072;6070405.0;6360613.0
10:39:29.112;6070273.0;6360135.0
10:39:29.152;6070119.0;6359363.0
10:39:29.192;6070039.0;6358019.0
10:39:29.232;6069765.0;6357226.0
10:39:29.272;6069812.0;6356784.0
10:39:29.312;6069868.0;6356673.0
10:39:29.352;6072671.0;6359369.0
10:39:29.392;6069724.0;6355981.0
10:39:29.432;6069520.0;6355213.0
10:39:29.472;6069397.0;6355180.0
10:39:29.512;6069459.0;6356307.0
10:39:29.552;6069339.0;6357152.0
10:39:29.592;6069292.0;6357626.0
10:39:29.632;6070044.0;6358787.0
10:39:29.672;6070480.0;6360957.0
10:39:29.712;6070618.0;6363534.0
10:39:29.752;6070412.0;6364255.0
10:39:29.792;6070372.0;6364281.0
10:39:29.832;6070340.0;6364488.0
10:39:29.872;6070343.0;6364274.0
10:39:29.912;6070383.0;6364341.0
10:39:29.952;6070190.0;6364111.0
10:39:29.992;6069981.0;6364006.0
10:39:30.032;6069960.0;6363220.0
10:39:30.072;6069909.0;6362826.0
10:39:30.112;6069763.0;6362318.0
10:39:30.152;6069725.0;6362071.0
10:39:30.192;6069764.0;6361892.0
10:39:30.232;6069672.0;6362009.0
10:39:30.272;6069875.0;6362392.0
10:39:30.312;6069920.0;6362884.0
10:39:30.352;6069887.0;6363391.0
10:39:30.392;6076118.0;6370362.0
10:39:30.432;6070195.0;6365197.0
10:39:30.472;6069857.0;6364215.0
10:39:30.512;6069886.0;6364889.0
10:39:30.552;6069799.0;6365034.0
10:39:30.592;6069659.0;6364402.0
10:39:30.632;6069561.0;6363983.0
10:39:30.672;6070122.0;6364148.0
10:39:30.712;6070191.0;6364919.0
10:39:30.752;6070052.0;6364540.0
10:39:30.792;6069834.0;6363754.0
10:39:30.832;6069749.0;6363002.0
10:39:30.872;6069552.0;6362671.0
10:39:30.912;6069551.0;6362019.0
10:39:30.952;6069577.0;6361661.0
10:39:30.992;6069547.0;6361840.0
10:39:31.032;6069633.0;6361816.0
10:39:31.072;6069698.0;6361945.0
10:39:31.112;6069668.0;6362225.0
10:39:31.152;6069915.0;6362835.0
10:39:31.192;6069905.0;6363441.0
10:39:31.232;6070102.0;6363176.0
10:39:31.272;6070310.0;6362950.0
10:39:31.312;6070372.0;6362881.0
10:39:31.352;6070332.0;6362805.0
10:39:31.392;6070053.0;6361172.0
10:39:31.432;6076808.0;6366912.0
10:39:31.472;6070203.0;6360724.0
10:39:31.512;6069628.0;6359243.0
10:39:31.552;6069321.0;6358034.0
10:39:31.592;6069247.0;6356998.0
10:39:31.632;6069030.0;6355639.0
10:39:31.672;6068888.0;6354406.0
10:39:31.712;6069604.0;6354611.0
10:39:31.752;6069710.0;6354756.0
10:39:31.792;6069648.0;6355021.0
10:39:31.832;6069519.0;6354871.0
10:39:31.872;6069557.0;6354700.0
10:39:31.912;6069640.0;6355154.0
10:39:31.952;6069782.0;6355904.0
10:39:31.992;6069964.0;6356635.0
10:39:32.032;6070084.0;6357457.0
10:39:32.072;6070148.0;6358345.0
10:39:32.112;6070243.0;6359606.0
10:39:32.152;6070214.0;6359919.0
10:39:36.203;6070135.0;6360026.0
10:39:36.243;6076458.0;6363525.0
10:39:36.283;6069161.0;6357753.0
10:39:36.323;6068943.0;6356779.0
10:39:36.363;6068930.0;6357789.0
10:39:36.403;6068979.0;6360746.0
10:39:36.443;6068901.0;6360970.0
10:39:36.483;6069029.0;6361222.0
10:39:36.523;6069809.0;6362727.0
10:39:36.563;6070131.0;6364991.0
10:39:36.603;6070236.0;6366059.0
10:39:36.643;6070231.0;6366248.0
10:39:36.683;6070083.0;6366673.0
10:39:36.723;6070151.0;6366999.0
10:39:36.763;6070140.0;6366686.0
10:39:36.803;6070187.0;6367111.0
10:39:36.843;6070027.0;6367015.0
10:39:36.883;6069896.0;6366454.0
10:39:36.923;6069608.0;6365056.0
10:39:36.963;6069497.0;6364568.0
10:39:37.003;6069392.0;6364104.0
10:39:37.043;6069188.0;6363597.0
10:39:37.083;6069303.0;6363713.0
10:39:37.123;6069338.0;6363772.0
10:39:37.163;6069343.0;6363766.0
10:39:37.203;6069491.0;6364137.0
10:39:37.243;6069936.0;6364092.0
10:39:37.283;6075305.0;6367808.0
10:39:37.323;6069560.0;6366116.0
10:39:37.363;6069553.0;6365544.0
10:39:37.403;6069514.0;6366134.0
10:39:37.443;6069619.0;6366692.0
10:39:37.483;6069388.0;6366416.0
10:39:37.523;6069466.0;6366263.0
10:39:37.563;6069928.0;6366817.0
10:39:37.603;6069881.0;6366405.0
10:39:37.643;6069635.0;6365517.0
10:39:37.683;6069461.0;6364813.0
10:39:37.723;6069275.0;6364224.0
10:39:37.763;6069002.0;6363509.0
10:39:37.803;6069168.0;6362796.0
10:39:37.843;6068972.0;6362125.0
10:39:37.883;6069051.0;6360874.0
10:39:37.923;6069133.0;6360205.0
10:39:37.963;6069169.0;6359664.0
10:39:38.003;6069254.0;6359938.0
10:39:38.043;6069415.0;6360332.0
10:39:38.083;6069592.0;6360297.0
10:39:38.123;6069666.0;6360211.0
10:39:38.163;6069793.0;6360565.0
10:39:38.203;6069959.0;6360824.0
10:39:38.243;6069926.0;6361079.0
10:39:38.283;6072458.0;6363885.0
10:39:38.323;6069800.0;6359682.0
10:39:38.363;6069503.0;6358690.0
10:39:38.403;6069359.0;6357115.0
10:39:38.443;6069088.0;6356196.0
10:39:38.483;6068779.0;6355397.0
10:39:38.523;6068489.0;6354379.0
10:39:38.563;6069005.0;6354852.0
10:39:38.603;6069165.0;6355593.0
10:39:38.643;6069297.0;6356361.0
10:39:38.683;6069149.0;6356143.0
10:39:38.723;6069087.0;6356018.0
10:39:38.763;6069181.0;6356371.0
10:39:38.803;6069433.0;6357647.0
10:39:38.843;6069654.0;6359117.0
10:39:38.883;6069579.0;6360669.0
10:39:38.923;6069696.0;6363376.0
10:39:38.963;6069813.0;6365809.0
10:39:39.003;6069897.0;6366835.0
10:39:39.043;6069875.0;6367048.0
10:39:39.083;6069910.0;6367305.0
10:39:39.123;6069969.0;6367152.0
10:39:39.163;6069980.0;6367054.0
10:39:39.203;6069789.0;6366774.0
10:39:39.243;6069686.0;6366327.0
10:39:39.283;6069404.0;6365364.0
10:39:39.323;6075702.0;6370590.0
10:39:39.363;6069269.0;6364953.0
10:39:39.403;6068780.0;6362977.0
10:39:39.443;6068544.0;6362651.0
10:39:39.483;6068447.0;6362435.0
10:39:39.523;6068294.0;6362390.0
10:39:39.563;6068362.0;6362566.0
10:39:39.603;6069210.0;6363614.0
10:39:39.643;6069401.0;6364996.0
10:39:39.683;6069638.0;6365664.0
10:39:39.723;6069459.0;6366328.0
10:39:39.763;6069736.0;6367019.0
10:39:39.803;6069698.0;6367486.0
10:39:39.843;6069730.0;6367883.0
10:39:39.883;6069622.0;6367899.0
10:39:39.923;6069519.0;6367871.0
10:39:39.963;6069490.0;6367648.0
10:39:40.003;6069581.0;6366970.0
10:39:40.043;6069491.0;6366362.0
10:39:40.083;6069330.0;6365473.0
10:39:40.123;6069205.0;6364957.0
10:39:40.163;6068916.0;6364259.0
10:39:41.661;6068786.0;6363641.0
10:39:41.701;6068668.0;6368643.0
10:39:41.741;6068465.0;6368539.0
10:39:41.781;6068494.0;6368586.0
10:39:41.821;6068298.0;6368119.0
10:39:41.861;6068357.0;6367820.0
10:39:41.901;6068237.0;6367226.0
10:39:41.941;6068161.0;6366742.0
10:39:41.981;6067890.0;6366189.0
10:39:42.021;6068148.0;6365564.0
10:39:42.061;6067801.0;6364805.0
10:39:42.101;6067757.0;6364815.0
10:39:42.141;6067715.0;6364408.0
10:39:42.181;6067711.0;6364446.0
10:39:42.221;6067740.0;6364386.0
10:39:42.261;6067756.0;6364444.0
10:39:42.301;6067924.0;6364104.0
10:39:42.341;6067888.0;6363345.0
10:39:42.381;6073772.0;6369625.0
10:39:42.421;6068183.0;6363793.0
10:39:42.461;6067840.0;6362356.0
10:39:42.501;6067685.0;6362658.0
10:39:42.541;6067536.0;6362151.0
10:39:42.581;6067367.0;6361177.0
10:39:42.621;6067144.0;6359394.0
10:39:42.661;6067802.0;6358626.0
10:39:42.701;6067746.0;6357703.0
10:39:42.741;6067872.0;6356878.0
10:39:42.781;6067560.0;6356702.0
10:39:42.821;6067481.0;6356777.0
10:39:42.861;6067500.0;6356719.0
10:39:42.901;6067558.0;6356706.0
10:39:42.941;6067532.0;6356385.0
10:39:42.981;6067640.0;6356789.0
10:39:43.021;6067632.0;6357567.0
10:39:43.061;6067774.0;6358198.0
10:39:43.101;6067874.0;6359111.0
10:39:43.141;6067974.0;6360285.0
10:39:43.181;6067950.0;6361207.0
10:39:43.221;6068138.0;6361901.0
10:39:43.261;6068173.0;6362838.0
10:39:43.301;6068124.0;6363948.0
10:39:43.341;6068053.0;6365507.0
10:39:43.381;6068376.0;6366659.0
10:39:43.421;6074878.0;6369336.0
10:39:43.461;6067655.0;6368952.0
10:39:43.501;6067378.0;6366646.0
10:39:43.541;6067223.0;6366163.0
10:39:43.581;6067030.0;6364649.0
10:39:43.621;6066678.0;6363849.0
10:39:43.661;6066708.0;6362999.0
10:39:43.701;6067317.0;6362620.0
10:39:43.741;6067373.0;6363796.0
10:39:43.781;6067364.0;6363925.0
10:39:43.821;6067253.0;6364053.0
10:39:43.861;6067306.0;6364442.0
10:39:43.901;6067574.0;6365111.0
10:39:43.941;6067788.0;6365692.0
10:39:43.981;6067719.0;6366371.0
10:39:44.021;6067697.0;6367235.0
10:39:44.061;6067909.0;6367735.0
10:39:44.101;6068089.0;6368198.0
10:39:44.141;6067898.0;6368114.0
10:39:44.181;6068099.0;6368460.0
10:39:44.221;6067945.0;6368551.0
10:39:44.261;6067625.0;6367494.0
10:39:44.301;6067624.0;6367087.0
10:39:44.341;6067456.0;6366369.0
10:39:44.381;6067279.0;6366116.0
10:39:44.421;6068725.0;6368131.0
10:39:44.461;6067321.0;6364316.0
10:39:44.501;6066784.0;6363701.0
10:39:44.541;6066588.0;6363065.0
10:39:44.581;6066511.0;6363113.0
10:39:44.621;6066401.0;6363007.0
10:39:44.661;6066483.0;6363029.0
10:39:44.701;6066889.0;6363767.0
10:39:44.741;6067343.0;6365054.0
10:39:44.781;6067686.0;6366146.0
10:39:44.821;6067635.0;6366963.0
10:39:44.861;6067640.0;6367459.0
10:39:44.901;6067601.0;6367823.0
10:39:44.941;6067572.0;6367641.0
10:39:44.981;6067486.0;6367784.0
10:39:45.021;6067521.0;6367353.0
10:39:45.061;6067338.0;6366872.0
10:39:45.101;6067326.0;6365798.0
10:39:45.141;6067068.0;6363998.0
10:39:45.181;6066931.0;6362889.0
10:39:45.221;6066863.0;6362001.0
10:39:45.261;6066818.0;6361492.0
10:39:45.301;6066818.0;6361495.0
10:39:45.341;6066743.0;6361367.0
10:39:45.381;6066735.0;6361436.0
10:39:45.421;6066662.0;6360738.0
10:39:45.461;6072854.0;6367932.0
10:39:45.501;6066843.0;6361493.0
10:39:45.541;6066770.0;6360744.0
10:39:45.581;6066797.0;6360661.0
10:39:45.621;6066828.0;6360036.0
10:39:49.432;6066815.0;6359473.0
10:39:49.472;6067280.0;6368436.0
10:39:49.512;6067263.0;6368217.0
10:39:49.552;6067208.0;6368047.0
10:39:49.592;6066985.0;6367557.0
10:39:49.632;6066939.0;6367039.0
10:39:49.672;6066744.0;6366561.0
10:39:49.712;6066780.0;6366477.0
10:39:49.752;6066312.0;6365255.0
10:39:49.792;6072599.0;6372699.0
10:39:49.832;6066359.0;6364855.0
10:39:49.872;6066027.0;6362879.0
10:39:49.912;6065864.0;6362123.0
10:39:49.952;6065807.0;6361055.0
10:39:49.992;6065614.0;6359876.0
10:39:50.032;6065665.0;6359750.0
10:39:50.072;6066285.0;6360850.0
10:39:50.112;6066794.0;6362640.0
10:39:50.152;6066705.0;6363447.0
10:39:50.192;6066679.0;6363138.0
10:39:50.232;6066531.0;6362170.0
10:39:50.272;6066838.0;6362666.0
10:39:50.312;6066751.0;6362703.0
10:39:50.352;6066696.0;6361891.0
10:39:50.392;6066782.0;6361070.0
10:39:50.432;6066784.0;6360335.0
10:39:50.472;6066629.0;6358856.0
10:39:50.512;6066526.0;6357837.0
10:39:50.552;6066497.0;6357113.0
10:39:50.592;6066237.0;6356515.0
10:39:50.632;6066185.0;6356370.0
10:39:50.672;6066058.0;6356363.0
10:39:50.712;6066238.0;6356343.0
10:39:50.752;6066177.0;6356514.0
10:39:50.792;6067594.0;6358603.0
10:39:50.832;6066602.0;6356729.0
10:39:50.872;6066051.0;6357766.0
10:39:50.912;6065791.0;6357684.0
10:39:50.952;6065984.0;6358270.0
10:39:50.992;6065874.0;6358226.0
10:39:51.032;6065794.0;6358688.0
10:39:51.072;6066334.0;6361016.0
10:39:51.112;6066564.0;6361855.0
10:39:51.152;6066794.0;6363419.0
10:39:51.192;6066716.0;6363738.0
10:39:51.232;6066353.0;6363385.0
10:39:51.272;6066270.0;6364483.0
10:39:51.312;6066120.0;6365868.0
10:39:51.352;6066090.0;6368094.0
10:39:51.392;6066156.0;6367810.0
10:39:51.432;6065970.0;6366591.0
10:39:51.472;6065925.0;6365345.0
10:39:51.512;6066006.0;6364825.0
10:39:51.552;6065860.0;6364725.0
10:39:51.592;6066150.0;6364652.0
10:39:51.632;6066298.0;6364806.0
10:39:51.672;6066375.0;6365180.0
10:39:51.712;6066344.0;6365778.0
10:39:51.752;6066397.0;6366248.0
10:39:51.792;6066159.0;6366377.0
10:39:51.832;6073319.0;6374105.0
10:39:51.872;6066445.0;6368384.0
10:39:51.912;6066173.0;6367269.0
10:39:51.952;6065956.0;6367133.0
10:39:51.992;6065772.0;6366715.0
10:39:52.032;6065656.0;6365825.0
10:39:52.072;6065409.0;6364991.0
10:39:52.112;6065672.0;6364726.0
10:39:52.152;6065858.0;6365005.0
10:39:52.192;6065658.0;6364803.0
10:39:52.232;6065439.0;6363984.0
10:39:52.272;6065461.0;6363573.0
10:39:52.312;6065533.0;6363701.0
10:39:52.352;6065495.0;6363950.0
10:39:52.392;6065556.0;6364152.0
10:39:52.432;6065669.0;6364115.0
10:39:52.472;6065605.0;6364455.0
10:39:52.512;6066018.0;6365325.0
10:39:52.552;6065968.0;6365511.0
10:39:52.592;6065974.0;6366174.0
10:39:52.632;6066149.0;6366445.0
10:39:52.672;6066133.0;6366527.0
10:39:52.712;6066070.0;6366060.0
10:39:52.752;6065953.0;6365382.0
10:39:52.792;6066027.0;6364895.0
10:39:52.832;6067123.0;6366564.0
10:39:52.872;6066499.0;6362599.0
10:39:52.912;6065314.0;6361664.0
10:39:52.952;6064979.0;6360156.0
10:39:52.992;6064806.0;6359126.0
10:39:53.032;6064622.0;6357882.0
10:39:53.072;6064268.0;6356912.0
10:39:53.112;6064754.0;6357415.0
10:39:53.152;6065091.0;6357812.0
10:39:53.192;6065297.0;6357781.0
10:39:53.232;6065350.0;6358062.0
10:39:53.272;6065324.0;6357709.0
10:39:53.312;6065412.0;6357461.0
10:39:53.352;6065702.0;6356933.0
10:39:53.392;6065730.0;6357483.0
10:39:52.651;6065688.0;6357093.0
10:39:52.691;6065671.0;6358979.0
10:39:52.731;6065826.0;6359814.0
10:39:52.771;6065860.0;6360359.0
10:39:52.811;6065781.0;6360733.0
10:39:52.851;6066077.0;6360248.0
10:39:52.891;6072684.0;6362120.0
10:39:52.931;6065353.0;6360297.0
10:39:52.971;6064955.0;6358031.0
10:39:53.011;6064507.0;6355793.0
10:39:53.051;6064423.0;6361842.0
10:39:53.091;6064114.0;6356457.0
10:39:53.131;6064213.0;6359665.0
10:39:53.171;6064688.0;6360204.0
10:39:53.211;6064907.0;6362559.0
10:39:53.251;6064760.0;6365298.0
10:39:53.291;6064892.0;6367439.0
10:39:53.331;6064825.0;6367254.0
10:39:53.371;6064986.0;6367428.0
10:39:53.411;6065225.0;6367090.0
10:39:53.451;6065290.0;6367355.0
10:39:53.491;6065493.0;6367887.0
10:39:53.531;6065528.0;6367991.0
10:39:53.571;6065599.0;6368181.0
10:39:53.611;6065553.0;6368025.0
10:39:53.651;6065500.0;6367775.0
10:39:53.691;6065332.0;6367443.0
10:39:53.731;6065152.0;6367013.0
10:39:53.771;6065051.0;6366332.0
10:39:53.811;6065055.0;6365558.0
10:39:53.851;6064728.0;6364962.0
10:39:53.891;6066677.0;6367578.0
10:39:53.931;6064950.0;6363995.0
10:39:53.971;6064060.0;6363311.0
10:39:54.011;6064155.0;6362981.0
10:39:54.051;6064068.0;6363023.0
10:39:54.091;6064047.0;6363092.0
10:39:54.131;6063877.0;6363090.0
10:39:54.171;6064435.0;6363694.0
10:39:54.211;6064789.0;6364808.0
10:39:54.251;6065097.0;6365719.0
10:39:54.291;6065023.0;6366559.0
10:39:54.331;6065167.0;6366479.0
10:39:54.371;6065152.0;6366689.0
10:39:54.411;6065174.0;6367119.0
10:39:54.451;6065160.0;6366973.0
10:39:54.491;6065094.0;6367056.0
10:39:54.531;6064854.0;6366709.0
10:39:54.571;6064852.0;6366262.0
10:39:54.611;6064770.0;6365417.0
10:39:54.651;6064548.0;6364643.0
10:39:54.691;6064323.0;6364031.0
10:39:54.731;6064408.0;6363502.0
10:39:54.771;6064405.0;6362887.0
10:39:54.811;6064200.0;6362739.0
10:39:54.851;6064308.0;6362716.0
10:39:54.891;6064321.0;6362623.0
10:39:54.931;6070030.0;6369005.0
10:39:54.971;6064462.0;6363477.0
10:39:55.011;6064142.0;6362147.0
10:39:55.051;6064174.0;6362327.0
10:39:55.091;6064164.0;6362282.0
10:39:55.131;6063986.0;6361618.0
10:39:55.171;6064174.0;6362207.0
10:39:55.211;6064733.0;6362774.0
10:39:55.251;6064926.0;6363523.0
10:39:55.291;6064862.0;6363610.0
10:39:55.331;6064657.0;6362533.0
10:39:55.371;6064510.0;6361822.0
10:39:55.411;6064408.0;6361171.0
10:39:55.451;6064318.0;6360036.0
10:39:55.491;6064176.0;6359389.0
10:39:55.531;6064161.0;6358961.0
10:39:55.571;6064010.0;6358135.0
10:39:55.611;6064009.0;6357932.0
10:39:55.651;6064089.0;6357597.0
10:39:55.691;6064058.0;6291610.0
10:39:55.731;6064101.0;6356438.0
10:39:55.771;6064280.0;6356230.0
10:39:55.811;6064231.0;6356743.0
10:39:55.851;6064484.0;6356978.0
10:39:55.891;6064507.0;6357648.0
10:39:55.931;6065482.0;6358231.0
10:39:55.971;6066307.0;6359054.0
10:39:56.011;6064475.0;6359260.0
10:39:56.051;6064178.0;6358338.0
10:39:56.091;6064102.0;6358161.0
10:39:56.131;6063905.0;6358033.0
10:39:56.171;6063518.0;6357327.0
10:39:56.211;6063907.0;6357763.0
10:39:56.251;6064187.0;6357462.0
10:39:56.291;6064167.0;6357931.0
10:39:56.331;6063969.0;6357852.0
10:39:56.371;6063768.0;6356899.0
10:39:56.411;6063763.0;6356640.0
10:39:56.451;6063843.0;6356908.0
10:39:56.491;6063872.0;6357141.0
10:39:56.531;6063892.0;6358344.0
10:39:56.571;6064014.0;6359777.0
10:39:56.611;6064262.0;6361691.0
10:39:54.764;6064352.0;6364328.0
10:39:54.804;6064273.0;6364094.0
10:39:54.844;6064350.0;6364642.0
10:39:54.884;6068476.0;6369274.0
10:39:54.924;6064499.0;6365355.0
10:39:54.964;6064225.0;6365246.0
10:39:55.004;6064122.0;6365538.0
10:39:55.044;6064140.0;6365770.0
10:39:55.084;6063992.0;6365539.0
10:39:55.124;6063876.0;6365117.0
10:39:55.164;6064144.0;6365065.0
10:39:55.204;6064361.0;6366352.0
10:39:55.244;6064244.0;6366666.0
10:39:55.284;6064134.0;6365466.0
10:39:55.324;6063679.0;6364827.0
10:39:55.364;6063803.0;6364384.0
10:39:55.404;6063655.0;6363768.0
10:39:55.444;6063679.0;6363141.0
10:39:55.484;6063470.0;6362703.0
10:39:55.524;6063569.0;6362500.0
10:39:55.564;6063527.0;6362415.0
10:39:55.604;6063810.0;6362875.0
10:39:55.644;6063832.0;6363359.0
10:39:55.684;6063964.0;6363797.0
10:39:55.724;6064206.0;6364346.0
10:39:55.764;6064041.0;6364890.0
10:39:55.804;6064203.0;6365238.0
10:39:55.844;6064248.0;6365674.0
10:39:55.884;6064849.0;6365983.0
10:39:55.924;6067037.0;6366196.0
10:39:55.964;6063556.0;6364239.0
10:39:56.004;6063347.0;6362422.0
10:39:56.044;6063125.0;6361502.0
10:39:56.084;6062861.0;6360295.0
10:39:56.124;6062578.0;6358826.0
10:39:56.164;6062810.0;6358212.0
10:39:56.204;6063195.0;6359056.0
10:39:56.244;6063264.0;6359629.0
10:39:56.284;6063185.0;6358978.0
10:39:56.324;6063165.0;6358619.0
10:39:56.364;6063149.0;6358692.0
10:39:56.404;6063212.0;6358406.0
10:39:56.444;6063298.0;6358508.0
10:39:56.484;6063405.0;6359132.0
10:39:56.524;6063481.0;6359641.0
10:39:56.564;6063606.0;6359830.0
10:39:56.604;6063636.0;6360155.0
10:39:56.644;6063721.0;6360620.0
10:39:56.684;6063737.0;6360870.0
10:39:56.724;6063760.0;6360483.0
10:39:56.764;6063541.0;6359709.0
10:39:56.804;6063487.0;6359645.0
10:39:56.844;6063454.0;6359366.0
10:39:56.884;6062953.0;6358014.0
10:39:56.924;6069953.0;6363839.0
10:39:56.964;6062853.0;6357724.0
10:39:57.004;6062572.0;6355081.0
10:39:57.044;6062441.0;6353755.0
10:39:57.084;6062215.0;6353697.0
10:39:57.124;6062046.0;6353358.0
10:39:57.164;6062074.0;6353451.0
10:39:57.204;6062776.0;6354460.0
10:39:57.244;6063080.0;6355733.0
10:39:57.284;6062975.0;6356202.0
10:39:57.324;6063064.0;6356259.0
10:39:57.364;6063113.0;6356790.0
10:39:57.404;6063237.0;6357485.0
10:39:57.444;6063405.0;6358280.0
10:39:57.484;6063440.0;6358938.0
10:39:57.524;6063510.0;6359587.0
10:39:57.564;6063497.0;6359618.0
10:39:57.604;6063376.0;6359759.0
10:39:57.644;6063299.0;6359583.0
10:39:57.684;6063175.0;6359143.0
10:39:57.724;6063096.0;6358690.0
10:39:57.764;6062881.0;6357641.0
10:39:57.804;6062750.0;6357260.0
10:39:57.844;6062608.0;6356803.0
10:39:57.884;6062532.0;6356549.0
10:39:57.924;6066016.0;6360375.0
10:39:57.964;6062456.0;6357308.0
10:39:58.004;6062277.0;6358456.0
10:39:58.044;6062118.0;6360541.0
10:39:58.084;6062257.0;6361271.0
10:39:58.124;6062145.0;6361039.0
10:39:58.164;6062109.0;6361440.0
10:39:58.204;6062987.0;6363917.0
10:39:58.244;6063287.0;6365138.0
10:39:58.284;6063280.0;6366160.0
10:39:58.324;6063138.0;6365569.0
10:39:58.364;6063092.0;6365045.0
10:39:58.404;6062998.0;6364781.0
10:39:58.444;6062948.0;6364331.0
10:39:58.484;6062796.0;6363688.0
10:39:58.524;6062819.0;6363189.0
10:39:58.564;6062523.0;6362455.0
10:39:58.604;6062509.0;6361756.0
10:39:58.644;6062339.0;6361279.0
10:39:58.684;6062434.0;6360970.0
10:39:58.724;6062446.0;6360691.0
10:39:59.238;6062503.0;6360702.0
10:39:59.278;6061907.0;6359062.0
10:39:59.318;6061730.0;6359091.0
10:39:59.358;6061727.0;6358944.0
10:39:59.398;6061817.0;6359450.0
10:39:59.438;6062032.0;6360091.0
10:39:59.478;6062710.0;6361190.0
10:39:59.518;6063030.0;6362741.0
10:39:59.558;6062961.0;6363400.0
10:39:59.598;6062814.0;6363124.0
10:39:59.638;6062752.0;6363318.0
10:39:59.678;6062805.0;6363268.0
10:39:59.718;6062776.0;6362868.0
10:39:59.758;6062719.0;6362939.0
10:39:59.798;6062633.0;6361927.0
10:39:59.838;6062518.0;6362133.0
10:39:59.878;6062324.0;6361143.0
10:39:59.918;6062237.0;6360460.0
10:39:59.958;6062122.0;6359737.0
10:39:59.998;6062261.0;6359033.0
10:40:00.038;6062125.0;6358658.0
10:40:00.078;6062055.0;6358866.0
10:40:00.118;6062180.0;6358832.0
10:40:00.158;6062267.0;6358915.0
10:40:00.198;6064340.0;6362595.0
10:40:00.238;6062713.0;6359550.0
10:40:00.278;6062143.0;6359704.0
10:40:00.318;6062143.0;6359736.0
10:40:00.358;6062187.0;6360018.0
10:40:00.398;6062095.0;6359781.0
10:40:00.438;6061759.0;6359248.0
10:40:00.478;6062251.0;6359037.0
10:40:00.518;6062486.0;6359775.0
10:40:00.558;6062655.0;6359964.0
10:40:00.598;6062417.0;6359149.0
10:40:00.638;6062249.0;6358185.0
10:40:00.678;6062223.0;6357523.0
10:40:00.718;6062070.0;6356786.0
10:40:00.758;6061981.0;6356120.0
10:40:00.798;6062015.0;6355645.0
10:40:00.838;6061896.0;6355067.0
10:40:00.878;6061851.0;6354987.0
10:40:00.918;6061922.0;6355205.0
10:40:00.958;6061966.0;6355207.0
10:40:00.998;6061981.0;6355118.0
10:40:01.038;6062122.0;6355286.0
10:40:01.078;6062195.0;6355875.0
10:40:01.118;6062390.0;6356529.0
10:40:01.158;6062449.0;6357113.0
10:40:01.198;6062302.0;6355855.0
10:40:01.238;6069604.0;6362655.0
10:40:01.278;6062606.0;6357483.0
10:40:01.318;6062180.0;6356366.0
10:40:01.358;6061955.0;6355869.0
10:40:01.398;6061822.0;6355447.0
10:40:01.438;6061478.0;6354463.0
10:40:01.478;6061441.0;6353786.0
10:40:01.518;6061912.0;6353254.0
10:40:01.558;6062057.0;6353759.0
10:40:01.598;6061827.0;6353651.0
10:40:01.638;6061752.0;6353412.0
10:40:01.678;6061731.0;6353104.0
10:40:01.718;6061781.0;6353533.0
10:40:01.758;6062005.0;6353899.0
10:40:01.798;6062117.0;6354378.0
10:40:01.838;6062261.0;6355063.0
10:40:01.878;6062328.0;6355134.0
10:40:01.918;6062448.0;6355913.0
10:40:01.958;6062485.0;6356645.0
10:40:01.998;6062635.0;6357119.0
10:40:02.038;6062524.0;6357167.0
10:40:02.078;6062449.0;6356883.0
10:40:02.118;6062416.0;6356932.0
10:40:02.158;6062276.0;6356738.0
10:40:02.198;6062218.0;6356504.0
10:40:02.238;6063871.0;6358085.0
10:40:02.278;6062093.0;6354758.0
10:40:02.318;6061444.0;6354625.0
10:40:02.358;6061208.0;6353429.0
10:40:02.398;6061163.0;6352877.0
10:40:02.438;6060950.0;6352364.0
10:40:02.478;6060837.0;6352279.0
10:40:02.518;6061396.0;6353678.0
10:40:02.558;6061780.0;6354710.0
10:40:02.598;6061977.0;6357114.0
10:40:02.638;6061855.0;6358209.0
10:40:02.678;6061935.0;6359425.0
10:40:02.718;6062010.0;6360591.0
10:40:02.758;6062298.0;6360434.0
10:40:02.798;6062429.0;6361048.0
10:40:02.838;6062471.0;6361831.0
10:40:02.878;6062440.0;6361971.0
10:40:02.918;6062343.0;6361779.0
10:40:02.958;6062440.0;6362244.0
10:40:02.998;6062252.0;6361767.0
10:40:03.038;6062184.0;6361005.0
10:40:03.078;6062042.0;6360429.0
10:40:03.118;6061859.0;6359674.0
10:40:03.158;6061783.0;6359163.0
10:40:03.198;6061737.0;6358175.0
10:40:03.403;6061414.0;6357749.0
10:40:03.443;6061312.0;6358107.0
10:40:03.483;6061875.0;6359717.0
10:40:03.523;6062389.0;6361132.0
10:40:03.563;6062318.0;6361887.0
10:40:03.603;6062143.0;6361584.0
10:40:03.643;6062110.0;6361147.0
10:40:03.683;6061888.0;6360921.0
10:40:03.723;6061843.0;6360578.0
10:40:03.763;6061857.0;6359817.0
10:40:03.803;6061717.0;6359461.0
10:40:03.843;6061645.0;6358768.0
10:40:03.883;6061513.0;6358376.0
10:40:03.923;6061467.0;6357731.0
10:40:03.963;6061437.0;6357670.0
10:40:04.003;6061576.0;6357813.0
10:40:04.043;6061615.0;6357823.0
10:40:04.083;6061685.0;6358062.0
10:40:04.123;6061817.0;6358546.0
10:40:04.163;6061910.0;6359202.0
10:40:04.203;6061605.0;6359119.0
10:40:04.243;6068994.0;6366518.0
10:40:04.283;6062169.0;6360490.0
10:40:04.323;6061798.0;6359599.0
10:40:04.363;6061736.0;6359885.0
10:40:04.403;6061562.0;6359917.0
10:40:04.443;6061321.0;6359175.0
10:40:04.483;6061270.0;6358759.0
10:40:04.523;6061708.0;6358503.0
10:40:04.563;6061822.0;6358510.0
10:40:04.603;6061437.0;6357779.0
10:40:04.643;6061337.0;6356691.0
10:40:04.683;6061287.0;6355861.0
10:40:04.723;6061308.0;6355360.0
10:40:04.763;6061324.0;6354811.0
10:40:04.803;6061427.0;6354777.0
10:40:04.843;6061509.0;6354755.0
10:40:04.883;6061475.0;6354809.0
10:40:04.923;6061372.0;6355066.0
10:40:04.963;6061617.0;6355552.0
10:40:05.003;6061706.0;6356267.0
10:40:05.043;6061773.0;6356449.0
10:40:05.083;6061881.0;6356884.0
10:40:05.123;6062081.0;6356624.0
10:40:05.163;6062080.0;6357235.0
10:40:05.203;6062180.0;6357860.0
10:40:05.243;6063470.0;6359547.0
10:40:05.283;6062562.0;6357282.0
10:40:05.323;6061650.0;6357447.0
10:40:05.363;6061358.0;6356228.0
10:40:05.403;6061163.0;6355776.0
10:40:05.443;6060980.0;6354926.0
10:40:05.483;6060658.0;6353940.0
10:40:05.523;6060930.0;6353362.0
10:40:05.563;6061384.0;6354064.0
10:40:05.603;6061349.0;6354269.0
10:40:05.643;6061217.0;6354048.0
10:40:05.683;6061214.0;6353662.0
10:40:05.723;6061246.0;6353746.0
10:40:05.763;6061463.0;6353887.0
10:40:05.803;6061490.0;6354067.0
10:40:05.843;6061729.0;6354786.0
10:40:05.883;6061841.0;6355017.0
10:40:05.923;6061886.0;6355627.0
10:40:05.963;6061984.0;6356441.0
10:40:06.003;6062043.0;6356996.0
10:40:06.043;6062015.0;6357074.0
10:40:06.083;6061896.0;6356782.0
10:40:06.123;6061933.0;6356756.0
10:40:06.163;6061867.0;6356596.0
10:40:06.203;6061802.0;6356586.0
10:40:06.243;6061321.0;6355390.0
10:40:06.283;6068760.0;6361210.0
10:40:06.323;6061280.0;6355010.0
10:40:06.363;6060897.0;6353519.0
10:40:06.403;6060700.0;6352784.0
10:40:06.443;6060549.0;6352308.0
10:40:06.483;6060368.0;6351854.0
10:40:06.523;6060445.0;6351527.0
10:40:06.563;6061216.0;6351790.0
10:40:06.603;6061391.0;6353392.0
10:40:06.643;6061474.0;6354092.0
10:40:06.683;6061442.0;6354355.0
10:40:06.723;6061580.0;6354950.0
10:40:06.763;6061773.0;6355687.0
10:40:06.803;6061815.0;6356362.0
10:40:06.843;6061894.0;6356988.0
10:40:06.883;6061915.0;6357625.0
10:40:06.923;6061879.0;6357689.0
10:40:06.963;6061842.0;6357709.0
10:40:07.003;6061749.0;6357703.0
10:40:07.043;6061674.0;6357482.0
10:40:07.083;6061511.0;6356847.0
10:40:07.123;6061554.0;6356958.0
10:40:07.163;6061440.0;6356312.0
10:40:07.203;6061250.0;6356102.0
10:40:07.243;6061209.0;6355659.0
10:40:07.283;6061919.0;6355692.0
10:40:07.323;6063342.0;6355463.0
10:40:07.363;6060763.0;6354940.0
10:40:08.208;6060645.0;6354083.0
10:40:08.248;6061156.0;6355871.0
10:40:08.288;6061223.0;6355866.0
10:40:08.328;6061261.0;6356048.0
10:40:08.368;6061371.0;6356828.0
10:40:08.408;6061528.0;6357141.0
10:40:08.448;6061674.0;6358010.0
10:40:08.488;6061729.0;6358458.0
10:40:08.528;6061752.0;6358532.0
10:40:08.568;6061684.0;6358742.0
10:40:08.608;6061647.0;6358715.0
10:40:08.648;6061500.0;6358329.0
10:40:08.688;6061355.0;6357032.0
10:40:08.728;6061109.0;6356384.0
10:40:08.768;6061018.0;6355803.0
10:40:08.808;6061082.0;6355265.0
10:40:08.848;6060973.0;6354786.0
10:40:08.888;6060914.0;6354019.0
10:40:08.928;6068394.0;6357125.0
10:40:08.968;6060793.0;6354599.0
10:40:09.008;6060416.0;6353286.0
10:40:09.048;6060360.0;6353408.0
10:40:09.088;6060422.0;6353565.0
10:40:09.128;6060335.0;6353407.0
10:40:09.168;6060609.0;6353529.0
10:40:09.208;6061531.0;6355005.0
10:40:09.248;6061596.0;6356578.0
10:40:09.288;6061500.0;6356824.0
10:40:09.328;6061385.0;6356501.0
10:40:09.368;6061364.0;6356249.0
10:40:09.408;6061277.0;6356272.0
10:40:09.448;6061298.0;6356055.0
10:40:09.488;6061230.0;6355600.0
10:40:09.528;6061086.0;6355067.0
10:40:09.568;6060888.0;6354335.0
10:40:09.608;6060861.0;6353819.0
10:40:09.648;6060691.0;6353329.0
10:40:09.688;6060692.0;6352764.0
10:40:09.728;6060619.0;6352396.0
10:40:09.768;6060605.0;6351841.0
10:40:09.808;6060686.0;6351723.0
10:40:09.848;6060676.0;6351909.0
10:40:09.888;6060712.0;6352181.0
10:40:09.928;6063526.0;6355617.0
10:40:09.968;6060883.0;6352878.0
10:40:10.008;6060714.0;6352841.0
10:40:10.048;6060725.0;6352883.0
10:40:10.088;6060733.0;6353449.0
10:40:10.128;6060695.0;6353807.0
10:40:10.168;6060473.0;6353724.0
10:40:10.208;6060973.0;6353410.0
10:40:10.248;6061269.0;6354194.0
10:40:10.288;6061258.0;6354520.0
10:40:10.328;6061020.0;6354413.0
10:40:10.368;6060766.0;6352832.0
10:40:10.408;6060697.0;6352499.0
10:40:10.448;6060632.0;6351913.0
10:40:10.488;6060608.0;6351558.0
10:40:10.528;6060620.0;6351409.0
10:40:10.568;6060610.0;6351323.0
10:40:10.608;6060718.0;6351238.0
10:40:10.648;6060746.0;6351515.0
10:40:10.688;6060719.0;6351559.0
10:40:10.728;6060821.0;6351903.0
10:40:10.768;6061037.0;6352346.0
10:40:10.808;6061142.0;6352862.0
10:40:10.848;6061254.0;6353586.0
10:40:10.888;6061357.0;6354134.0
10:40:10.928;6061368.0;6353871.0
10:40:10.968;6068967.0;6358462.0
10:40:11.008;6061162.0;6355640.0
10:40:11.048;6060821.0;6354326.0
10:40:11.088;6060647.0;6354105.0
10:40:11.128;6060394.0;6353881.0
10:40:11.168;6059979.0;6352374.0
10:40:11.208;6060089.0;6352682.0
10:40:11.248;6060752.0;6352741.0
10:40:11.288;6060713.0;6353554.0
10:40:11.328;6060551.0;6353007.0
10:40:11.368;6060485.0;6352304.0
10:40:11.408;6060593.0;6352158.0
10:40:11.448;6060754.0;6352544.0
10:40:11.488;6060847.0;6353067.0
10:40:11.528;6061025.0;6353866.0
10:40:11.568;6061179.0;6354398.0
10:40:11.608;6061248.0;6354816.0
10:40:11.648;6061395.0;6355730.0
10:40:11.688;6061362.0;6356437.0
10:40:11.728;6061439.0;6356649.0
10:40:11.768;6061287.0;6356437.0
10:40:11.808;6061379.0;6356261.0
10:40:11.848;6061294.0;6355942.0
10:40:11.888;6061021.0;6355067.0
10:40:11.928;6060917.0;6354505.0
10:40:11.968;6065246.0;6358287.0
10:40:12.008;6060819.0;6353564.0
10:40:12.048;6060232.0;6352154.0
10:40:12.088;6060010.0;6351606.0
10:40:12.128;6060028.0;6351715.0
10:40:12.168;6059906.0;6351362.0
10:40:12.687;6059935.0;6351235.0
10:40:12.727;6061384.0;6354860.0
10:40:12.767;6061293.0;6354706.0
10:40:12.807;6067469.0;6359391.0
10:40:12.847;6061118.0;6354961.0
10:40:12.887;6060694.0;6352308.0
10:40:12.927;6060390.0;6352057.0
10:40:12.967;6060176.0;6351601.0
10:40:13.007;6059997.0;6350802.0
10:40:13.047;6059737.0;6349945.0
10:40:13.087;6060454.0;6349113.0
10:40:13.127;6060631.0;6350397.0
10:40:13.167;6060623.0;6350804.0
10:40:13.207;6060497.0;6350530.0
10:40:13.247;6060629.0;6350235.0
10:40:13.287;6060677.0;6350863.0
10:40:13.327;6060897.0;6352039.0
10:40:13.367;6061132.0;6352707.0
10:40:13.407;6061365.0;6353492.0
10:40:13.447;6061392.0;6353467.0
10:40:13.487;6061337.0;6354000.0
10:40:13.527;6061298.0;6354035.0
10:40:13.567;6061311.0;6353777.0
10:40:13.607;6061179.0;6353474.0
10:40:13.647;6061056.0;6352741.0
10:40:13.687;6060943.0;6352332.0
10:40:13.727;6060786.0;6351901.0
10:40:13.767;6060704.0;6351369.0
10:40:13.807;6060475.0;6349989.0
10:40:13.847;6067952.0;6354827.0
10:40:13.887;6060540.0;6350467.0
10:40:13.927;6060163.0;6349286.0
10:40:13.967;6059820.0;6349287.0
10:40:14.007;6059975.0;6349450.0
10:40:14.047;6059864.0;6349129.0
10:40:14.087;6060063.0;6349756.0
10:40:14.127;6060892.0;6350123.0
10:40:14.167;6061060.0;6352116.0
10:40:14.207;6061083.0;6352727.0
10:40:14.247;6061111.0;6352872.0
10:40:14.287;6061212.0;6353404.0
10:40:14.327;6061213.0;6353928.0
10:40:14.367;6061290.0;6354122.0
10:40:14.407;6061208.0;6354320.0
10:40:14.447;6061151.0;6354124.0
10:40:14.487;6061122.0;6353764.0
10:40:14.527;6060968.0;6353398.0
10:40:14.567;6060810.0;6353026.0
10:40:14.607;6060625.0;6352433.0
10:40:14.647;6060601.0;6352001.0
10:40:14.687;6060569.0;6351626.0
10:40:14.727;6060487.0;6351235.0
10:40:14.767;6060417.0;6351267.0
10:40:14.807;6060524.0;6351430.0
10:40:14.847;6061308.0;6351635.0
10:40:14.887;6064024.0;6352559.0
10:40:14.927;6060442.0;6352114.0
10:40:14.967;6060280.0;6351575.0
10:40:15.007;6060336.0;6351899.0
10:40:15.047;6060300.0;6352056.0
10:40:15.087;6060276.0;6351962.0
10:40:15.127;6060606.0;6352659.0
10:40:15.167;6061391.0;6354396.0
10:40:15.207;6061161.0;6355041.0
10:40:15.247;6061095.0;6354580.0
10:40:15.287;6060931.0;6353868.0
10:40:15.327;6060895.0;6353705.0
10:40:15.367;6060741.0;6353119.0
10:40:15.407;6060767.0;6352593.0
10:40:15.447;6060669.0;6352248.0
10:40:15.487;6060528.0;6351299.0
10:40:15.527;6060388.0;6350910.0
10:40:15.567;6060477.0;6350611.0
10:40:15.607;6060516.0;6350370.0
10:40:15.647;6060526.0;6350294.0
10:40:15.687;6060563.0;6350111.0
10:40:15.727;6060586.0;6350131.0
10:40:15.767;6060754.0;6350813.0
10:40:15.807;6060867.0;6351376.0
10:40:15.847;6060868.0;6351928.0
10:40:15.887;6064988.0;6356518.0
10:40:15.927;6060996.0;6352268.0
10:40:15.967;6060644.0;6352121.0
10:40:16.007;6060519.0;6352167.0
10:40:16.047;6060426.0;6352428.0
10:40:16.087;6060325.0;6351951.0
10:40:16.127;6060146.0;6351457.0
10:40:16.167;6060471.0;6351349.0
10:40:16.207;6060750.0;6352403.0
10:40:16.247;6060646.0;6352107.0
10:40:16.287;6060409.0;6351189.0
10:40:16.327;6060246.0;6350322.0
10:40:16.367;6060162.0;6349768.0
10:40:16.407;6060227.0;6349420.0
10:40:16.447;6060290.0;6349395.0
10:40:16.487;6060267.0;6349620.0
10:40:16.527;6060410.0;6349754.0
10:40:16.567;6060515.0;6350142.0
10:40:16.607;6060600.0;6350579.0
10:40:16.647;6060720.0;6351007.0
10:40:17.486;6060766.0;6351554.0
10:40:17.526;6067394.0;6350794.0
10:40:17.566;6060184.0;6349700.0
10:40:17.606;6060002.0;6348954.0
10:40:17.646;6060009.0;6349378.0
10:40:17.686;6059972.0;6349913.0
10:40:17.726;6059996.0;6349991.0
10:40:17.766;6060094.0;6349595.0
10:40:17.806;6061044.0;6351134.0
10:40:17.846;6061145.0;6352855.0
10:40:17.886;6061080.0;6353060.0
10:40:17.926;6060798.0;6352360.0
10:40:17.966;6060723.0;6352468.0
10:40:18.006;6060845.0;6352489.0
10:40:18.046;6060761.0;6352242.0
10:40:18.086;6060739.0;6351907.0
10:40:18.126;6060633.0;6351373.0
10:40:18.166;6060566.0;6350966.0
10:40:18.206;6060600.0;6350584.0
10:40:18.246;6060507.0;6350219.0
10:40:18.286;6060278.0;6349800.0
10:40:18.326;6060333.0;6349767.0
10:40:18.366;6060343.0;6349651.0
10:40:18.406;6060368.0;6349703.0
10:40:18.446;6060444.0;6349805.0
10:40:18.486;6060587.0;6350207.0
10:40:18.526;6063503.0;6353954.0
10:40:18.566;6060703.0;6351078.0
10:40:18.606;6060454.0;6351061.0
10:40:18.646;6060436.0;6351259.0
10:40:18.686;6060467.0;6351935.0
10:40:18.726;6060385.0;6352016.0
10:40:18.766;6060116.0;6351503.0
10:40:18.806;6060477.0;6352387.0
10:40:18.846;6060885.0;6353570.0
10:40:18.886;6060768.0;6353209.0
10:40:18.926;6060653.0;6352290.0
10:40:18.966;6060488.0;6351136.0
10:40:19.006;6060320.0;6350617.0
10:40:19.046;6060295.0;6350217.0
10:40:19.086;6060213.0;6349837.0
10:40:19.126;6060217.0;6349385.0
10:40:19.166;6060254.0;6348853.0
10:40:19.206;6060269.0;6349080.0
10:40:19.246;6060364.0;6349179.0
10:40:19.286;6060465.0;6349422.0
10:40:19.326;6060524.0;6349665.0
10:40:19.366;6060625.0;6349747.0
10:40:19.406;6060856.0;6350443.0
10:40:19.446;6060864.0;6350990.0
10:40:19.486;6060933.0;6351539.0
10:40:19.526;6060697.0;6351125.0
10:40:19.566;6068162.0;6357322.0
10:40:19.606;6060857.0;6352269.0
10:40:19.646;6060425.0;6350783.0
10:40:19.686;6060225.0;6350534.0
10:40:19.726;6060102.0;6350350.0
10:40:19.766;6059776.0;6349466.0
10:40:19.806;6059727.0;6348691.0
10:40:19.846;6060426.0;6348594.0
10:40:19.886;6060311.0;6349391.0
10:40:19.926;6060206.0;6348905.0
10:40:19.966;6060067.0;6347923.0
10:40:20.006;6060127.0;6347427.0
10:40:20.046;6060184.0;6347502.0
10:40:20.086;6060315.0;6347676.0
10:40:20.126;6060383.0;6348081.0
10:40:20.166;6060549.0;6348651.0
10:40:20.206;6060614.0;6348891.0
10:40:20.246;6060829.0;6349617.0
10:40:20.286;6060855.0;6349938.0
10:40:20.326;6060923.0;6350577.0
10:40:20.366;6061049.0;6350934.0
10:40:20.406;6060950.0;6350827.0
10:40:20.446;6060898.0;6350667.0
10:40:20.486;6060911.0;6350723.0
10:40:20.526;6060851.0;6350629.0
10:40:20.566;6061647.0;6350780.0
10:40:20.606;6062563.0;6350000.0
10:40:20.646;6060221.0;6348929.0
10:40:20.686;6059953.0;6346668.0
10:40:20.726;6059806.0;6346206.0
10:40:20.766;6059544.0;6345204.0
10:40:20.806;6059382.0;6343987.0
10:40:20.846;6059616.0;6343636.0
10:40:20.886;6060455.0;6345281.0
10:40:20.926;6060369.0;6346727.0
10:40:20.966;6060408.0;6347237.0
10:40:21.006;6060468.0;6348424.0
10:40:21.046;6060515.0;6349063.0
10:40:21.086;6060733.0;6349657.0
10:40:21.126;6060877.0;6350137.0
10:40:21.166;6061023.0;6351341.0
10:40:21.206;6061129.0;6351598.0
10:40:21.246;6061024.0;6351244.0
10:40:21.286;6060975.0;6351983.0
10:40:21.326;6060975.0;6351919.0
10:40:21.366;6060897.0;6351817.0
10:40:21.406;6060783.0;6351056.0
10:40:21.446;6060609.0;6350388.0
10:40:23.885;6060488.0;6349596.0
10:40:23.925;6060113.0;6347353.0
10:40:23.965;6059909.0;6346140.0
10:40:24.005;6059583.0;6344515.0
10:40:24.045;6059673.0;6344255.0
10:40:24.085;6060543.0;6344661.0
10:40:24.125;6060515.0;6345444.0
10:40:24.165;6060477.0;6346034.0
10:40:24.205;6060461.0;6346124.0
10:40:24.245;6060452.0;6346499.0
10:40:24.285;6060657.0;6347315.0
10:40:24.325;6060767.0;6347773.0
10:40:24.365;6060896.0;6348560.0
10:40:24.405;6060990.0;6348844.0
10:40:24.445;6061165.0;6349058.0
10:40:24.485;6061081.0;6349519.0
10:40:24.525;6061025.0;6349786.0
10:40:24.565;6060988.0;6349608.0
10:40:24.605;6060869.0;6349288.0
10:40:24.645;6060831.0;6348913.0
10:40:24.685;6060632.0;6348440.0
10:40:24.725;6060621.0;6347969.0
10:40:24.765;6060407.0;6347588.0
10:40:24.805;6066884.0;6351939.0
10:40:24.845;6060296.0;6347550.0
10:40:24.885;6059883.0;6346195.0
10:40:24.925;6060065.0;6345756.0
10:40:24.965;6059953.0;6345766.0
10:40:25.005;6059832.0;6345626.0
10:40:25.045;6059917.0;6346347.0
10:40:25.085;6060543.0;6346783.0
10:40:25.125;6060959.0;6348690.0
10:40:25.165;6061064.0;6349784.0
10:40:25.205;6060987.0;6350258.0
10:40:25.245;6061029.0;6349949.0
10:40:25.285;6060977.0;6350510.0
10:40:25.325;6061137.0;6350812.0
10:40:25.365;6061085.0;6350763.0
10:40:25.405;6061038.0;6350655.0
10:40:25.445;6060869.0;6349503.0
10:40:25.485;6060769.0;6349099.0
10:40:25.525;6060620.0;6348574.0
10:40:25.565;6060593.0;6348016.0
10:40:25.605;6060415.0;6347415.0
10:40:25.645;6060398.0;6346929.0
10:40:25.685;6060414.0;6346664.0
10:40:25.725;6060436.0;6346613.0
10:40:25.765;6060487.0;6346741.0
10:40:25.805;6061474.0;6347163.0
10:40:25.845;6062582.0;6347628.0
10:40:25.885;6060422.0;6347464.0
10:40:25.925;6060329.0;6346904.0
10:40:25.965;6060252.0;6347846.0
10:40:26.005;6060445.0;6348115.0
10:40:26.045;6060344.0;6347790.0
10:40:26.085;6060592.0;6347774.0
10:40:26.125;6061286.0;6348924.0
10:40:26.165;6061106.0;6348948.0
10:40:26.205;6060756.0;6348482.0
10:40:26.245;6060609.0;6347738.0
10:40:26.285;6060542.0;6346701.0
10:40:26.325;6060517.0;6346478.0
10:40:26.365;6060463.0;6346026.0
10:40:26.405;6060470.0;6345867.0
10:40:26.445;6060445.0;6345447.0
10:40:26.485;6060638.0;6345428.0
10:40:26.525;6060575.0;6345725.0
10:40:26.565;6060719.0;6345836.0
10:40:26.605;6060830.0;6346335.0
10:40:26.645;6060962.0;6346746.0
10:40:26.685;6061046.0;6347273.0
10:40:26.725;6061114.0;6347806.0
10:40:26.765;6061271.0;6348360.0
10:40:26.805;6060977.0;6348009.0
10:40:26.845;6068531.0;6354120.0
10:40:26.885;6061172.0;6349067.0
10:40:26.925;6060680.0;6347913.0
10:40:26.965;6060502.0;6347439.0
10:40:27.005;6060319.0;6346905.0
10:40:27.045;6059964.0;6345767.0
10:40:27.085;6060063.0;6345064.0
10:40:27.125;6060696.0;6344592.0
10:40:27.165;6060663.0;6345354.0
10:40:27.205;6060584.0;6345134.0
10:40:27.245;6060364.0;6344695.0
10:40:27.285;6060399.0;6344764.0
10:40:27.325;6060528.0;6344752.0
10:40:27.365;6060656.0;6344854.0
10:40:27.405;6060697.0;6345266.0
10:40:27.445;6060863.0;6345608.0
10:40:27.485;6060924.0;6346035.0
10:40:27.525;6061128.0;6346553.0
10:40:27.565;6061248.0;6347028.0
10:40:27.605;6061353.0;6347538.0
10:40:27.645;6061371.0;6347774.0
10:40:27.685;6061390.0;6347910.0
10:40:27.725;6061363.0;6347930.0
10:40:27.765;6061309.0;6347807.0
10:40:27.805;6061255.0;6347684.0
10:40:27.845;6066295.0;6351501.0
10:40:25.487;6060961.0;6346836.0
10:40:25.527;6061339.0;6346317.0
10:40:25.567;6061438.0;6347823.0
10:40:25.607;6061281.0;6347957.0
10:40:25.647;6061180.0;6347279.0
10:40:25.687;6061151.0;6347190.0
10:40:25.727;6061084.0;6346978.0
10:40:25.767;6060996.0;6346529.0
10:40:25.807;6060993.0;6346201.0
10:40:25.847;6060869.0;6345658.0
10:40:25.887;6060750.0;6345107.0
10:40:25.927;6060782.0;6344794.0
10:40:25.967;6060801.0;6344628.0
10:40:26.007;6060871.0;6344568.0
10:40:26.047;6060846.0;6344560.0
10:40:26.087;6060865.0;6344522.0
10:40:26.127;6060990.0;6344887.0
10:40:26.167;6061077.0;6345233.0
10:40:26.207;6061153.0;6345691.0
10:40:26.247;6062105.0;6346295.0
10:40:26.287;6064175.0;6347395.0
10:40:26.327;6061264.0;6347432.0
10:40:26.367;6061121.0;6346870.0
10:40:26.407;6060997.0;6347314.0
10:40:26.447;6060779.0;6347444.0
10:40:26.487;6060650.0;6346776.0
10:40:26.527;6060814.0;6347157.0
10:40:26.567;6061466.0;6347635.0
10:40:26.607;6061247.0;6348012.0
10:40:26.647;6061053.0;6347078.0
10:40:26.687;6060856.0;6346162.0
10:40:26.727;6060874.0;6345414.0
10:40:26.767;6060814.0;6345070.0
10:40:26.807;6060755.0;6345285.0
10:40:26.847;6060932.0;6345180.0
10:40:26.887;6060940.0;6345033.0
10:40:26.927;6060998.0;6345273.0
10:40:26.967;6060943.0;6345503.0
10:40:27.007;6061098.0;6345699.0
10:40:27.047;6061282.0;6346216.0
10:40:27.087;6061366.0;6346608.0
10:40:27.127;6061493.0;6347011.0
10:40:27.167;6061566.0;6347511.0
10:40:27.207;6061681.0;6347992.0
10:40:27.247;6061699.0;6348268.0
10:40:27.287;6066999.0;6352752.0
10:40:27.327;6061563.0;6348544.0
10:40:27.367;6061170.0;6347254.0
10:40:27.407;6060952.0;6346697.0
10:40:27.447;6060732.0;6346016.0
10:40:27.487;6060445.0;6344972.0
10:40:27.527;6060314.0;6343838.0
10:40:27.567;6060863.0;6343327.0
10:40:27.607;6061108.0;6344360.0
10:40:27.647;6060941.0;6344201.0
10:40:27.687;6060833.0;6343765.0
10:40:27.727;6060917.0;6343674.0
10:40:27.767;6061043.0;6343878.0
10:40:27.807;6061172.0;6344257.0
10:40:27.847;6061326.0;6344906.0
10:40:27.887;6061445.0;6345372.0
10:40:27.927;6061614.0;6345607.0
10:40:27.967;6061675.0;6346306.0
10:40:28.007;6061805.0;6346774.0
10:40:28.047;6061771.0;6347108.0
10:40:28.087;6061869.0;6347210.0
10:40:28.127;6061754.0;6347094.0
10:40:28.167;6061679.0;6346781.0
10:40:28.207;6061594.0;6346472.0
10:40:28.247;6061588.0;6346092.0
10:40:28.287;6061254.0;6344651.0
10:40:28.327;6068754.0;6349050.0
10:40:28.367;6060971.0;6344439.0
10:40:28.407;6060558.0;6342730.0
10:40:28.447;6060585.0;6342438.0
10:40:28.487;6060428.0;6342544.0
10:40:28.527;6060344.0;6342238.0
10:40:28.567;6060604.0;6342166.0
10:40:28.607;6061517.0;6342891.0
10:40:28.647;6061566.0;6344559.0
10:40:28.687;6061755.0;6345246.0
10:40:28.727;6061641.0;6345403.0
10:40:28.767;6061829.0;6346078.0
10:40:28.807;6061916.0;6346594.0
10:40:28.847;6061892.0;6346893.0
10:40:28.887;6061857.0;6346765.0
10:40:28.927;6061875.0;6346641.0
10:40:28.967;6061827.0;6346215.0
10:40:29.007;6061664.0;6345859.0
10:40:29.047;6061653.0;6345347.0
10:40:29.087;6061478.0;6344767.0
10:40:29.127;6061371.0;6344276.0
10:40:29.167;6061349.0;6343796.0
10:40:29.207;6061289.0;6343395.0
10:40:29.247;6061373.0;6343342.0
10:40:29.287;6061419.0;6343376.0
10:40:29.327;6063874.0;6346155.0
10:40:29.367;6061459.0;6343355.0
10:40:29.407;6061233.0;6343569.0
10:40:29.447;6061228.0;6343636.0
10:40:29.978;6061166.0;6344067.0
10:40:30.018;6061636.0;6344491.0
10:40:30.058;6061434.0;6344048.0
10:40:30.098;6061498.0;6343691.0
10:40:30.138;6061302.0;6343287.0
10:40:30.178;6061437.0;6342961.0
10:40:30.218;6061484.0;6342762.0
10:40:30.258;6061484.0;6342906.0
10:40:30.298;6061527.0;6343065.0
10:40:30.338;6061682.0;6343203.0
10:40:30.378;6061820.0;6343731.0
10:40:30.418;6061888.0;6344062.0
10:40:30.458;6061981.0;6344707.0
10:40:30.498;6062199.0;6345274.0
10:40:30.538;6062288.0;6345797.0
10:40:30.578;6062026.0;6345782.0
10:40:30.618;6069747.0;6351599.0
10:40:30.658;6062075.0;6346638.0
10:40:30.698;6061710.0;6345391.0
10:40:30.738;6061497.0;6344825.0
10:40:30.778;6061328.0;6344527.0
10:40:30.818;6061008.0;6343562.0
10:40:30.858;6060900.0;6342824.0
10:40:30.898;6061603.0;6343094.0
10:40:30.938;6061601.0;6343902.0
10:40:30.978;6061478.0;6343419.0
10:40:31.018;6061487.0;6342796.0
10:40:31.058;6061462.0;6342638.0
10:40:31.098;6061481.0;6342906.0
10:40:31.138;6061656.0;6343255.0
10:40:31.178;6061767.0;6343922.0
10:40:31.218;6061867.0;6343877.0
10:40:31.258;6061971.0;6344319.0
10:40:31.298;6062121.0;6345100.0
10:40:31.338;6062266.0;6345419.0
10:40:31.378;6062395.0;6345773.0
10:40:31.418;6062325.0;6346009.0
10:40:31.458;6062421.0;6346105.0
10:40:31.498;6062295.0;6345892.0
10:40:31.538;6062308.0;6345443.0
10:40:31.578;6062102.0;6344938.0
10:40:31.618;6061873.0;6343366.0
10:40:31.658;6069485.0;6347527.0
10:40:31.698;6061743.0;6343340.0
10:40:31.738;6061166.0;6341649.0
10:40:31.778;6061087.0;6341619.0
10:40:31.818;6060945.0;6340815.0
10:40:31.858;6060933.0;6340388.0
10:40:31.898;6061030.0;6340207.0
10:40:31.938;6061960.0;6340878.0
10:40:31.978;6061948.0;6342355.0
10:40:32.018;6061919.0;6342286.0
10:40:32.058;6061936.0;6342562.0
10:40:32.098;6062024.0;6343215.0
10:40:32.138;6062124.0;6343826.0
10:40:32.178;6062345.0;6344439.0
10:40:32.218;6062438.0;6345027.0
10:40:32.258;6062509.0;6345315.0
10:40:32.298;6062459.0;6345424.0
10:40:32.338;6062362.0;6345397.0
10:40:32.378;6062377.0;6345152.0
10:40:32.418;6062208.0;6344728.0
10:40:32.458;6062088.0;6344215.0
10:40:32.498;6062041.0;6343773.0
10:40:32.538;6061997.0;6343386.0
10:40:32.578;6061813.0;6342845.0
10:40:32.618;6061796.0;6342417.0
10:40:32.658;6061709.0;6341152.0
10:40:32.698;6069442.0;6345468.0
10:40:32.738;6061632.0;6342438.0
10:40:32.778;6061400.0;6341265.0
10:40:32.818;6061218.0;6341183.0
10:40:32.858;6061236.0;6341227.0
10:40:32.898;6061344.0;6341992.0
10:40:32.938;6061580.0;6342235.0
10:40:32.978;6062470.0;6342869.0
10:40:33.018;6062595.0;6344612.0
10:40:33.058;6062520.0;6345174.0
10:40:33.098;6062396.0;6344991.0
10:40:33.138;6062376.0;6345117.0
10:40:33.178;6062372.0;6345026.0
10:40:33.218;6062330.0;6344761.0
10:40:33.258;6062254.0;6344540.0
10:40:33.298;6062165.0;6343843.0
10:40:33.338;6062153.0;6343272.0
10:40:33.378;6062030.0;6342860.0
10:40:33.418;6061944.0;6342278.0
10:40:33.458;6061937.0;6341889.0
10:40:33.498;6061991.0;6341760.0
10:40:33.538;6062002.0;6341766.0
10:40:33.578;6062091.0;6341842.0
10:40:33.618;6062186.0;6341986.0
10:40:33.658;6062317.0;6342548.0
10:40:33.698;6062202.0;6342066.0
10:40:33.738;6070118.0;6347401.0
10:40:33.778;6062549.0;6344340.0
10:40:33.818;6062300.0;6343695.0
10:40:33.858;6062173.0;6343890.0
10:40:33.898;6062054.0;6343893.0
10:40:33.938;6061929.0;6343590.0
10:40:34.450;6061952.0;6343224.0
10:40:34.490;6062146.0;6342198.0
10:40:34.530;6062152.0;6341874.0
10:40:34.570;6062288.0;6342033.0
10:40:34.610;6062270.0;6341969.0
10:40:34.650;6062304.0;6342408.0
10:40:34.690;6062472.0;6342858.0
10:40:34.730;6062436.0;6343326.0
10:40:34.770;6062506.0;6343190.0
10:40:34.810;6062714.0;6343730.0
10:40:34.850;6062787.0;6344251.0
10:40:34.890;6062886.0;6344725.0
10:40:34.930;6062906.0;6345214.0
10:40:34.970;6062966.0;6345563.0
10:40:35.010;6065196.0;6348361.0
10:40:35.050;6062944.0;6345283.0
10:40:35.090;6062473.0;6344564.0
10:40:35.130;6062135.0;6343717.0
10:40:35.170;6061903.0;6343192.0
10:40:35.210;6061731.0;6342531.0
10:40:35.250;6061705.0;6341525.0
10:40:35.290;6061907.0;6341147.0
10:40:35.330;6062328.0;6342901.0
10:40:35.370;6062265.0;6342812.0
10:40:35.410;6062109.0;6342287.0
10:40:35.450;6062133.0;6341986.0
10:40:35.490;6062162.0;6342028.0
10:40:35.530;6062227.0;6342332.0
10:40:35.570;6062385.0;6342767.0
10:40:35.610;6062591.0;6343434.0
10:40:35.650;6062687.0;6343722.0
10:40:35.690;6062871.0;6344122.0
10:40:35.730;6062848.0;6344717.0
10:40:35.770;6063029.0;6345111.0
10:40:35.810;6063005.0;6345424.0
10:40:35.850;6063021.0;6345437.0
10:40:35.890;6062983.0;6345407.0
10:40:35.930;6062965.0;6345399.0
10:40:35.970;6062879.0;6345294.0
10:40:36.010;6062903.0;6344384.0
10:40:36.050;6064237.0;6346013.0
10:40:36.090;6063165.0;6342998.0
10:40:36.130;6061914.0;6342154.0
10:40:36.170;6061771.0;6340642.0
10:40:36.210;6061571.0;6340096.0
10:40:36.250;6061459.0;6339519.0
10:40:36.290;6061496.0;6338609.0
10:40:36.330;6061891.0;6338756.0
10:40:36.370;6062491.0;6340434.0
10:40:36.410;6062673.0;6341506.0
10:40:36.450;6062725.0;6341818.0
10:40:36.490;6062730.0;6341717.0
10:40:36.530;6062840.0;6342337.0
10:40:36.570;6063004.0;6343095.0
10:40:36.610;6062986.0;6343306.0
10:40:36.650;6063335.0;6343691.0
10:40:36.690;6062983.0;6343340.0
10:40:36.730;6063107.0;6343450.0
10:40:36.770;6063066.0;6343550.0
10:40:36.810;6062912.0;6343275.0
10:40:36.850;6062718.0;6342844.0
10:40:36.890;6062693.0;6342419.0
10:40:36.930;6062548.0;6341892.0
10:40:36.970;6062476.0;6341459.0
10:40:37.010;6062334.0;6341019.0
10:40:37.050;6062332.0;6340555.0
10:40:37.090;6063342.0;6340971.0
10:40:37.130;6064017.0;6340784.0
10:40:37.170;6062169.0;6340570.0
10:40:37.210;6061961.0;6339812.0
10:40:37.250;6062040.0;6340174.0
10:40:37.290;6062015.0;6340213.0
10:40:37.330;6061971.0;6340288.0
10:40:37.370;6062410.0;6340382.0
10:40:37.410;6063245.0;6341567.0
10:40:37.450;6063199.0;6343029.0
10:40:37.490;6063093.0;6343321.0
10:40:37.530;6063034.0;6343221.0
10:40:37.570;6062949.0;6343326.0
10:40:37.610;6062971.0;6343076.0
10:40:37.650;6062886.0;6342684.0
10:40:37.690;6062832.0;6342263.0
10:40:37.730;6062733.0;6341784.0
10:40:37.770;6062716.0;6341810.0
10:40:37.810;6062577.0;6340702.0
10:40:37.850;6062576.0;6340464.0
10:40:37.890;6062463.0;6339848.0
10:40:37.930;6062458.0;6339344.0
10:40:37.970;6062593.0;6338909.0
10:40:38.010;6062552.0;6338760.0
10:40:38.050;6062688.0;6339094.0
10:40:38.090;6062759.0;6339526.0
10:40:38.130;6063602.0;6339889.0
10:40:38.170;6067037.0;6339914.0
10:40:38.210;6062883.0;6340716.0
10:40:38.250;6062787.0;6340270.0
10:40:38.290;6062698.0;6339887.0
10:40:38.330;6062572.0;6340241.0
10:40:38.370;6062430.0;6340021.0
10:40:38.410;6062593.0;6339881.0
10:40:38.596;6063289.0;6340675.0
10:40:38.636;6063178.0;6343931.0
10:40:38.676;6063045.0;6343169.0
10:40:38.716;6062829.0;6342503.0
10:40:38.756;6062839.0;6342127.0
10:40:38.796;6062807.0;6341898.0
10:40:38.836;6062780.0;6341826.0
10:40:38.876;6062769.0;6341523.0
10:40:38.916;6062914.0;6341715.0
10:40:38.956;6062890.0;6342010.0
10:40:38.996;6063026.0;6342389.0
10:40:39.036;6063177.0;6342892.0
10:40:39.076;6063235.0;6343233.0
10:40:39.116;6067294.0;6348223.0
10:40:39.156;6063405.0;6343959.0
10:40:39.196;6063140.0;6343704.0
10:40:39.236;6062962.0;6343949.0
10:40:39.276;6062858.0;6344312.0
10:40:39.316;6062803.0;6343878.0
10:40:39.356;6062646.0;6343492.0
10:40:39.396;6063162.0;6344063.0
10:40:39.436;6063288.0;6345022.0
10:40:39.476;6063223.0;6344679.0
10:40:39.516;6063016.0;6343841.0
10:40:39.556;6062979.0;6343103.0
10:40:39.596;6062870.0;6342799.0
10:40:39.636;6062769.0;6342209.0
10:40:39.676;6062767.0;6342147.0
10:40:39.716;6062929.0;6342013.0
10:40:39.756;6062917.0;6341777.0
10:40:39.796;6062984.0;6341965.0
10:40:39.836;6063015.0;6342040.0
10:40:39.876;6063152.0;6342380.0
10:40:39.916;6063284.0;6342706.0
10:40:39.956;6063411.0;6343102.0
10:40:39.996;6063548.0;6343657.0
10:40:40.036;6063641.0;6344200.0
10:40:40.076;6063623.0;6344629.0
10:40:40.116;6063650.0;6344825.0
10:40:40.156;6065268.0;6347579.0
10:40:40.196;6064356.0;6344687.0
10:40:40.236;6063226.0;6344176.0
10:40:40.276;6062946.0;6343207.0
10:40:40.316;6062810.0;6342575.0
10:40:40.356;6062751.0;6341668.0
10:40:40.396;6062302.0;6341217.0
10:40:40.436;6062468.0;6340912.0
10:40:40.476;6063120.0;6342138.0
10:40:40.516;6063104.0;6341753.0
10:40:40.556;6062879.0;6340861.0
10:40:40.596;6062899.0;6324298.0
10:40:40.636;6062970.0;6341077.0
10:40:40.676;6063066.0;6341475.0
10:40:40.716;6063184.0;6342099.0
10:40:40.756;6063380.0;6342142.0
10:40:40.796;6063517.0;6342459.0
10:40:40.836;6063520.0;6342947.0
10:40:40.876;6063667.0;6343317.0
10:40:40.916;6063813.0;6343123.0
10:40:40.956;6063842.0;6342849.0
10:40:40.996;6063788.0;6342550.0
10:40:41.036;6063858.0;6342137.0
10:40:41.076;6063769.0;6341956.0
10:40:41.116;6063676.0;6341688.0
10:40:41.156;6063488.0;6341120.0
10:40:41.196;6064381.0;6341057.0
10:40:41.236;6065174.0;6340267.0
10:40:41.276;6062755.0;6339394.0
10:40:41.316;6062462.0;6337830.0
10:40:41.356;6062419.0;6337309.0
10:40:41.396;6062316.0;6336771.0
10:40:41.436;6062098.0;6335772.0
10:40:41.476;6062422.0;6334780.0
10:40:41.516;6063317.0;6336085.0
10:40:41.556;6063299.0;6337388.0
10:40:41.596;6063312.0;6337469.0
10:40:41.636;6063414.0;6337939.0
10:40:41.676;6063631.0;6337698.0
10:40:41.716;6063778.0;6338678.0
10:40:41.756;6063912.0;6339206.0
10:40:41.796;6063988.0;6339428.0
10:40:41.836;6063959.0;6339699.0
10:40:41.876;6063848.0;6339276.0
10:40:41.916;6063833.0;6338587.0
10:40:41.956;6063731.0;6338885.0
10:40:41.996;6063604.0;6338247.0
10:40:42.036;6063439.0;6337426.0
10:40:42.076;6063392.0;6337184.0
10:40:42.116;6063249.0;6335721.0
10:40:42.156;6063316.0;6335133.0
10:40:42.196;6063343.0;6335140.0
10:40:42.236;6063850.0;6334347.0
10:40:42.276;6069746.0;6335622.0
10:40:42.316;6063309.0;6335245.0
10:40:42.356;6063144.0;6333809.0
10:40:42.396;6063275.0;6333604.0
10:40:42.436;6063292.0;6333412.0
10:40:42.476;6063213.0;6333231.0
10:40:42.516;6063529.0;6336213.0
10:40:42.556;6064308.0;6336806.0
10:40:42.758;6064217.0;6337822.0
10:40:42.798;6063983.0;6347282.0
10:40:42.838;6064113.0;6348592.0
10:40:42.878;6064247.0;6347618.0
10:40:42.918;6064364.0;6347686.0
10:40:42.958;6064288.0;6347050.0
10:40:42.998;6064336.0;6346862.0
10:40:43.038;6064149.0;6346505.0
10:40:43.078;6064213.0;6345888.0
10:40:43.118;6064374.0;6345310.0
10:40:43.158;6064049.0;6344714.0
10:40:43.198;6063674.0;6344102.0
10:40:43.238;6063822.0;6343551.0
10:40:43.278;6063412.0;6343134.0
10:40:43.318;6071380.0;6348411.0
10:40:43.358;6063454.0;6342334.0
10:40:43.398;6063096.0;6340938.0
10:40:43.438;6063120.0;6340694.0
10:40:43.478;6062987.0;6340542.0
10:40:43.518;6063075.0;6340778.0
10:40:43.558;6063244.0;6341261.0
10:40:43.598;6064049.0;6342938.0
10:40:43.638;6064362.0;6344930.0
10:40:43.678;6064369.0;6344440.0
10:40:43.718;6064289.0;6344407.0
10:40:43.758;6064274.0;6344400.0
10:40:43.798;6064352.0;6344743.0
10:40:43.838;6064314.0;6344780.0
10:40:43.878;6064294.0;6344484.0
10:40:43.918;6064156.0;6344102.0
10:40:43.958;6064084.0;6343466.0
10:40:43.998;6063934.0;6342911.0
10:40:44.038;6063800.0;6342468.0
10:40:44.078;6063783.0;6341765.0
10:40:44.118;6063668.0;6341163.0
10:40:44.158;6063713.0;6341044.0
10:40:44.198;6063765.0;6341080.0
10:40:44.238;6063808.0;6340970.0
10:40:44.278;6063851.0;6341048.0
10:40:44.318;6063728.0;6340682.0
10:40:44.358;6071562.0;6348179.0
10:40:44.398;6064363.0;6342601.0
10:40:44.438;6064007.0;6342082.0
10:40:44.478;6063900.0;6341894.0
10:40:44.518;6063815.0;6342477.0
10:40:44.558;6063628.0;6342045.0
10:40:44.598;6063611.0;6342088.0
10:40:44.638;6064315.0;6342940.0
10:40:44.678;6064485.0;6343413.0
10:40:44.718;6064300.0;6343065.0
10:40:44.758;6064114.0;6342257.0
10:40:44.798;6063983.0;6342029.0
10:40:44.838;6063819.0;6341628.0
10:40:44.878;6063846.0;6340500.0
10:40:44.918;6063798.0;6340180.0
10:40:44.958;6063751.0;6339889.0
10:40:44.998;6063699.0;6339858.0
10:40:45.038;6063685.0;6339719.0
10:40:45.078;6063854.0;6339802.0
10:40:45.118;6063796.0;6339916.0
10:40:45.158;6064019.0;6340364.0
10:40:45.198;6064219.0;6340708.0
10:40:45.238;6064304.0;6341106.0
10:40:45.278;6064427.0;6341717.0
10:40:45.318;6064577.0;6342211.0
10:40:45.358;6064465.0;6341531.0
10:40:45.398;6071867.0;6347064.0
10:40:45.438;6064644.0;6342302.0
10:40:45.478;6063978.0;6340584.0
10:40:45.518;6063870.0;6339873.0
10:40:45.558;6063756.0;6338803.0
10:40:45.598;6063408.0;6337295.0
10:40:45.638;6063340.0;6336288.0
10:40:45.678;6063913.0;6336577.0
10:40:45.718;6063867.0;6336529.0
10:40:45.758;6063776.0;6336049.0
10:40:45.798;6063691.0;6334226.0
10:40:45.838;6063782.0;6332495.0
10:40:45.878;6063834.0;6331633.0
10:40:45.918;6063959.0;6331030.0
10:40:45.958;6064141.0;6332102.0
10:40:45.998;6064316.0;6333281.0
10:40:46.038;6064441.0;6334347.0
10:40:46.078;6064657.0;6334571.0
10:40:46.118;6064775.0;6335481.0
10:40:46.158;6064918.0;6335974.0
10:40:46.198;6064867.0;6336165.0
10:40:46.238;6064819.0;6336872.0
10:40:46.278;6064732.0;6336950.0
10:40:46.318;6064707.0;6336975.0
10:40:46.358;6064595.0;6337590.0
10:40:46.398;6065134.0;6337853.0
10:40:46.438;6068476.0;6338659.0
10:40:46.478;6064120.0;6337733.0
10:40:46.518;6063813.0;6336925.0
10:40:46.558;6063658.0;6337130.0
10:40:46.598;6063522.0;6336417.0
10:40:46.638;6063557.0;6335207.0
10:40:46.678;6063753.0;6334296.0
10:40:46.718;6064639.0;6335256.0
10:40:52.848;6064592.0;6336117.0
10:40:52.888;6064759.0;6337907.0
10:40:52.928;6064989.0;6338402.0
10:40:52.968;6064920.0;6338446.0
10:40:53.008;6064950.0;6339551.0
10:40:53.048;6064829.0;6339804.0
10:40:53.088;6064688.0;6340331.0
10:40:53.128;6064785.0;6341302.0
10:40:53.168;6064557.0;6341886.0
10:40:53.208;6064396.0;6342495.0
10:40:53.248;6064357.0;6343045.0
10:40:53.288;6063874.0;6342599.0
10:40:53.328;6070637.0;6349601.0
10:40:53.368;6064223.0;6343682.0
10:40:53.408;6063688.0;6342644.0
10:40:53.448;6063774.0;6341842.0
10:40:53.488;6063541.0;6341249.0
10:40:53.528;6063648.0;6339989.0
10:40:53.568;6064803.0;6340733.0
10:40:53.608;6064366.0;6339711.0
10:40:53.648;6065113.0;6340648.0
10:40:53.688;6065247.0;6340990.0
10:40:53.728;6065199.0;6341196.0
10:40:53.768;6065098.0;6341531.0
10:40:53.808;6064933.0;6341636.0
10:40:53.848;6065271.0;6341078.0
10:40:53.888;6065032.0;6339677.0
10:40:53.928;6064923.0;6338469.0
10:40:53.968;6065029.0;6337530.0
10:40:54.008;6064336.0;6337767.0
10:40:54.048;6064422.0;6338864.0
10:40:54.088;6064455.0;6339198.0
10:40:54.128;6064340.0;6338310.0
10:40:54.168;6064041.0;6335754.0
10:40:54.208;6064000.0;6334492.0
10:40:54.248;6064006.0;6334194.0
10:40:54.288;6063969.0;6333903.0
10:40:54.328;6064702.0;6333632.0
10:40:54.368;6067411.0;6333629.0
10:40:54.408;6064098.0;6334187.0
10:40:54.448;6063969.0;6333610.0
10:40:54.488;6064172.0;6334315.0
10:40:54.528;6064223.0;6335366.0
10:40:54.568;6064062.0;6335876.0
10:40:54.608;6064299.0;6337118.0
10:40:54.648;6065150.0;6339586.0
10:40:54.688;6064940.0;6339386.0
10:40:54.728;6064912.0;6339423.0
10:40:54.768;6064693.0;6339226.0
10:40:54.808;6064595.0;6338680.0
10:40:54.848;6064538.0;6338498.0
10:40:54.888;6064453.0;6338136.0
10:40:54.928;6064438.0;6339062.0
10:40:54.968;6064493.0;6339662.0
10:40:55.008;6064590.0;6341437.0
10:40:55.048;6064545.0;6341682.0
10:40:55.088;6064689.0;6341156.0
10:40:55.128;6064645.0;6340948.0
10:40:55.168;6064768.0;6341321.0
10:40:55.208;6064813.0;6341792.0
10:40:55.248;6065067.0;6342308.0
10:40:55.288;6064986.0;6342509.0
10:40:55.328;6065104.0;6343229.0
10:40:55.368;6069925.0;6348668.0
10:40:55.408;6065308.0;6344493.0
10:40:55.448;6064924.0;6343231.0
10:40:55.488;6064625.0;6342687.0
10:40:55.528;6064619.0;6342729.0
10:40:55.568;6064331.0;6341800.0
10:40:55.608;6064104.0;6341034.0
10:40:55.648;6064377.0;6340683.0
10:40:55.688;6064513.0;6340798.0
10:40:55.728;6064466.0;6340570.0
10:40:55.768;6064270.0;6339938.0
10:40:55.808;6064185.0;6339265.0
10:40:55.848;6064258.0;6338909.0
10:40:55.888;6064274.0;6338921.0
10:40:55.928;6064336.0;6339484.0
10:40:55.968;6064421.0;6339932.0
10:40:56.008;6064449.0;6339822.0
10:40:56.048;6064601.0;6340204.0
10:40:56.088;6064925.0;6340698.0
10:40:56.128;6065088.0;6341399.0
10:40:56.168;6065031.0;6341800.0
10:40:56.208;6065195.0;6342119.0
10:40:56.248;6065305.0;6342380.0
10:40:56.288;6065222.0;6342555.0
10:40:56.328;6065103.0;6342366.0
10:40:56.368;6065587.0;6341206.0
10:40:56.408;6069328.0;6341445.0
10:40:56.448;6064543.0;6338900.0
10:40:56.488;6064140.0;6337432.0
10:40:56.528;6063850.0;6336597.0
10:40:56.568;6063591.0;6335222.0
10:40:56.608;6063237.0;6333182.0
10:40:56.648;6063385.0;6332469.0
10:40:56.688;6064264.0;6333115.0
10:40:56.728;6064420.0;6333556.0
10:40:56.768;6064430.0;6333318.0
10:40:56.808;6064526.0;6332409.0
10:40:55.893;6064675.0;6332239.0
10:40:55.933;6064956.0;6338635.0
10:40:55.973;6064713.0;6338517.0
10:40:56.013;6064782.0;6338177.0
10:40:56.053;6064829.0;6338022.0
10:40:56.093;6064748.0;6337437.0
10:40:56.133;6065027.0;6337015.0
10:40:56.173;6065155.0;6336307.0
10:40:56.213;6065340.0;6336762.0
10:40:56.253;6066184.0;6337204.0
10:40:56.293;6069136.0;6338653.0
10:40:56.333;6065364.0;6337188.0
10:40:56.373;6065196.0;6335895.0
10:40:56.413;6065010.0;6334640.0
10:40:56.453;6064974.0;6334117.0
10:40:56.493;6064730.0;6333125.0
10:40:56.533;6064937.0;6333422.0
10:40:56.573;6065749.0;6334323.0
10:40:56.613;6065681.0;6334063.0
10:40:56.653;6065517.0;6333644.0
10:40:56.693;6064958.0;6333037.0
10:40:56.733;6064996.0;6332949.0
10:40:56.773;6064929.0;6332735.0
10:40:56.813;6064889.0;6332714.0
10:40:56.853;6064910.0;6332819.0
10:40:56.893;6064940.0;6333047.0
10:40:56.933;6065049.0;6333555.0
10:40:56.973;6065129.0;6333956.0
10:40:57.013;6065170.0;6334474.0
10:40:57.053;6065401.0;6335090.0
10:40:57.093;6065497.0;6335878.0
10:40:57.133;6065703.0;6338243.0
10:40:57.173;6065803.0;6341249.0
10:40:57.213;6066008.0;6343988.0
10:40:57.253;6066156.0;6345096.0
10:40:57.293;6068591.0;6348347.0
10:40:57.333;6066166.0;6343430.0
10:40:57.373;6065394.0;6342469.0
10:40:57.413;6065470.0;6342128.0
10:40:57.453;6065037.0;6341346.0
10:40:57.493;6065003.0;6340347.0
10:40:57.533;6064583.0;6339107.0
10:40:57.573;6064781.0;6339238.0
10:40:57.613;6065303.0;6339714.0
10:40:57.653;6065142.0;6339460.0
10:40:57.693;6065079.0;6339189.0
10:40:57.733;6065107.0;6338981.0
10:40:57.773;6064975.0;6339013.0
10:40:57.813;6065139.0;6338974.0
10:40:57.853;6065270.0;6339180.0
10:40:57.893;6065449.0;6339655.0
10:40:57.933;6065580.0;6340175.0
10:40:57.973;6065696.0;6340561.0
10:40:58.013;6065979.0;6341007.0
10:40:58.053;6066089.0;6341486.0
10:40:58.093;6065994.0;6342126.0
10:40:58.133;6066055.0;6342258.0
10:40:58.173;6065855.0;6342024.0
10:40:58.213;6065988.0;6341729.0
10:40:58.253;6065801.0;6341365.0
10:40:58.293;6065475.0;6340478.0
10:40:58.333;6071835.0;6348106.0
10:40:58.373;6065226.0;6339865.0
10:40:58.413;6064918.0;6338209.0
10:40:58.453;6064708.0;6337273.0
10:40:58.493;6064529.0;6337011.0
10:40:58.533;6064513.0;6335922.0
10:40:58.573;6064225.0;6335010.0
10:40:58.613;6064924.0;6334087.0
10:40:58.653;6065259.0;6334996.0
10:40:58.693;6065351.0;6336194.0
10:40:58.733;6065366.0;6336248.0
10:40:58.773;6065452.0;6336023.0
10:40:58.813;6065586.0;6336384.0
10:40:58.853;6065659.0;6336553.0
10:40:58.893;6065864.0;6337533.0
10:40:58.933;6065749.0;6337460.0
10:40:58.973;6065775.0;6336840.0
10:40:59.013;6065725.0;6335671.0
10:40:59.053;6065446.0;6335147.0
10:40:59.093;6065435.0;6334416.0
10:40:59.133;6065413.0;6333497.0
10:40:59.173;6065315.0;6333415.0
10:40:59.213;6065306.0;6332995.0
10:40:59.253;6065315.0;6332624.0
10:40:59.293;6065298.0;6332863.0
10:40:59.333;6066725.0;6334915.0
10:40:59.373;6065751.0;6332805.0
10:40:59.413;6064984.0;6333339.0
10:40:59.453;6065054.0;6333177.0
10:40:59.493;6065180.0;6333750.0
10:40:59.533;6065130.0;6334077.0
10:40:59.573;6065106.0;6334431.0
10:40:59.613;6065445.0;6335944.0
10:40:59.653;6066066.0;6336825.0
10:40:59.693;6066144.0;6338350.0
10:40:59.733;6065778.0;6338795.0
10:40:59.773;6065814.0;6340522.0
10:40:59.813;6065634.0;6343080.0
10:40:59.853;6065840.0;6345532.0
10:41:00.132;6065854.0;6344015.0
10:41:00.172;6065283.0;6339080.0
10:41:00.212;6065359.0;6338912.0
10:41:00.252;6065465.0;6338831.0
10:41:00.292;6070168.0;6344312.0
10:41:00.332;6065635.0;6339501.0
10:41:00.372;6065365.0;6338636.0
10:41:00.412;6065278.0;6338792.0
10:41:00.452;6065388.0;6339094.0
10:41:00.492;6065349.0;6339079.0
10:41:00.532;6065329.0;6339481.0
10:41:00.572;6065800.0;6340348.0
10:41:00.612;6066023.0;6341140.0
10:41:00.652;6066010.0;6341386.0
10:41:00.692;6065882.0;6341025.0
10:41:00.732;6065837.0;6340242.0
10:41:00.772;6065750.0;6340260.0
10:41:00.812;6065636.0;6340012.0
10:41:00.852;6065392.0;6339428.0
10:41:00.892;6065336.0;6338808.0
10:41:00.932;6065232.0;6338292.0
10:41:00.972;6065202.0;6337867.0
10:41:01.012;6065032.0;6337238.0
10:41:01.052;6065207.0;6336605.0
10:41:01.092;6065188.0;6335804.0
10:41:01.132;6065259.0;6334912.0
10:41:01.172;6065402.0;6334842.0
10:41:01.212;6065615.0;6335406.0
10:41:01.252;6065726.0;6335459.0
10:41:01.292;6065583.0;6334187.0
10:41:01.332;6072319.0;6342104.0
10:41:01.372;6065854.0;6335427.0
10:41:01.412;6065554.0;6334657.0
10:41:01.452;6065634.0;6335005.0
10:41:01.492;6065547.0;6334925.0
10:41:01.532;6065389.0;6333824.0
10:41:01.572;6065291.0;6333671.0
10:41:01.612;6065886.0;6334505.0
10:41:01.652;6065979.0;6334716.0
10:41:01.692;6065704.0;6334432.0
10:41:01.732;6065372.0;6334065.0
10:41:01.772;6065187.0;6333541.0
10:41:01.812;6065150.0;6333209.0
10:41:01.852;6065210.0;6333620.0
10:41:01.892;6065322.0;6333708.0
10:41:01.932;6065329.0;6333695.0
10:41:01.972;6065444.0;6334423.0
10:41:02.012;6065612.0;6335386.0
10:41:02.052;6065836.0;6336317.0
10:41:02.092;6065981.0;6339350.0
10:41:02.132;6066178.0;6343672.0
10:41:02.172;6066499.0;6343399.0
10:41:02.212;6066559.0;6345422.0
10:41:02.252;6066420.0;6344999.0
10:41:02.292;6066291.0;6343891.0
10:41:02.332;6067108.0;6343687.0
10:41:02.372;6068288.0;6343640.0
10:41:02.412;6065923.0;6342087.0
10:41:02.452;6065491.0;6340276.0
10:41:02.492;6065352.0;6339260.0
10:41:02.532;6065062.0;6338984.0
10:41:02.572;6064682.0;6337776.0
10:41:02.612;6064727.0;6337444.0
10:41:02.652;6065387.0;6338122.0
10:41:02.692;6065418.0;6338261.0
10:41:02.732;6065353.0;6338312.0
10:41:02.772;6065441.0;6338079.0
10:41:02.812;6065547.0;6338055.0
10:41:02.852;6065376.0;6338524.0
10:41:02.892;6065788.0;6339161.0
10:41:02.932;6065872.0;6339923.0
10:41:02.972;6066002.0;6340268.0
10:41:03.012;6066149.0;6340431.0
10:41:03.052;6066061.0;6340581.0
10:41:03.092;6066032.0;6340858.0
10:41:03.132;6065920.0;6340636.0
10:41:03.172;6065979.0;6340664.0
10:41:03.212;6065855.0;6340083.0
10:41:03.252;6065725.0;6339420.0
10:41:03.292;6065810.0;6339081.0
10:41:03.332;6065579.0;6338468.0
10:41:03.372;6067970.0;6343027.0
10:41:03.412;6065324.0;6337830.0
10:41:03.452;6064860.0;6335679.0
10:41:03.492;6064689.0;6333923.0
10:41:03.532;6064764.0;6332903.0
10:41:03.572;6064427.0;6332534.0
10:41:03.612;6064571.0;6332292.0
10:41:03.652;6064976.0;6333620.0
10:41:03.692;6065555.0;6333901.0
10:41:03.732;6065793.0;6334735.0
10:41:03.772;6065824.0;6334615.0
10:41:03.812;6065859.0;6334115.0
10:41:03.852;6066059.0;6335170.0
10:41:03.892;6066144.0;6335499.0
10:41:03.932;6066079.0;6335286.0
10:41:03.972;6065952.0;6334621.0
10:41:04.012;6065945.0;6334395.0
10:41:04.052;6065877.0;6334154.0
10:41:04.092;6065738.0;6333996.0
10:41:04.225;6065554.0;6334156.0
10:41:04.265;6065501.0;6334161.0
10:41:04.305;6064950.0;6333758.0
10:41:04.345;6072440.0;6339365.0
10:41:04.385;6065125.0;6334332.0
10:41:04.425;6064870.0;6334247.0
10:41:04.465;6064821.0;6335640.0
10:41:04.505;6064853.0;6337552.0
10:41:04.545;6064859.0;6338660.0
10:41:04.585;6065225.0;6340952.0
10:41:04.625;6066013.0;6342385.0
10:41:04.665;6066542.0;6344332.0
10:41:04.705;6066555.0;6343929.0
10:41:04.745;6066289.0;6343384.0
10:41:04.785;6066336.0;6343217.0
10:41:04.825;6066233.0;6343144.0
10:41:04.865;6066206.0;6342888.0
10:41:04.905;6066152.0;6341897.0
10:41:04.945;6065999.0;6341869.0
10:41:04.985;6065962.0;6340981.0
10:41:05.025;6065726.0;6340372.0
10:41:05.065;6065623.0;6339571.0
10:41:05.105;6065373.0;6338547.0
10:41:05.145;6065451.0;6338540.0
10:41:05.185;6065434.0;6337717.0
10:41:05.225;6065427.0;6337309.0
10:41:05.265;6065553.0;6337289.0
10:41:05.305;6065581.0;6337713.0
10:41:05.345;6066503.0;6339566.0
10:41:05.385;6067185.0;6338949.0
10:41:05.425;6065650.0;6338641.0
10:41:05.465;6065454.0;6338417.0
10:41:05.505;6065452.0;6338004.0
10:41:05.545;6065571.0;6338624.0
10:41:05.585;6065438.0;6338286.0
10:41:05.625;6065413.0;6338575.0
10:41:05.665;6065942.0;6339368.0
10:41:05.705;6066058.0;6339662.0
10:41:05.745;6065800.0;6339666.0
10:41:05.785;6065679.0;6338958.0
10:41:05.825;6065528.0;6338635.0
10:41:05.865;6065333.0;6338180.0
10:41:05.905;6065300.0;6337702.0
10:41:05.945;6065166.0;6336867.0
10:41:05.985;6065179.0;6335755.0
10:41:06.025;6065194.0;6334954.0
10:41:06.065;6065243.0;6334706.0
10:41:06.105;6065242.0;6334945.0
10:41:06.145;6065374.0;6334435.0
10:41:06.185;6065367.0;6333636.0
10:41:06.225;6065451.0;6332903.0
10:41:06.265;6065682.0;6333190.0
10:41:06.305;6065689.0;6333228.0
10:41:06.345;6065742.0;6333395.0
10:41:06.385;6072430.0;6340238.0
10:41:06.425;6066004.0;6335523.0
10:41:06.465;6065751.0;6334290.0
10:41:06.505;6065619.0;6334046.0
10:41:06.545;6065518.0;6334004.0
10:41:06.585;6065185.0;6333521.0
10:41:06.625;6064963.0;6333064.0
10:41:06.665;6065493.0;6333399.0
10:41:06.705;6065548.0;6333772.0
10:41:06.745;6065491.0;6333682.0
10:41:06.785;6065229.0;6333126.0
10:41:06.825;6065171.0;6332863.0
10:41:06.865;6065225.0;6333021.0
10:41:06.905;6065363.0;6333403.0
10:41:06.945;6065419.0;6333299.0
10:41:06.985;6065612.0;6333816.0
10:41:07.025;6065701.0;6334510.0
10:41:07.065;6065593.0;6335110.0
10:41:07.105;6065745.0;6334854.0
10:41:07.145;6065892.0;6335371.0
10:41:07.185;6066027.0;6336206.0
10:41:07.225;6066161.0;6337349.0
10:41:07.265;6066388.0;6340505.0
10:41:07.305;6066308.0;6344149.0
10:41:07.345;6066468.0;6344304.0
10:41:07.385;6067824.0;6346885.0
10:41:07.425;6067082.0;6343486.0
10:41:07.465;6065860.0;6342198.0
10:41:07.505;6065557.0;6341117.0
10:41:07.545;6065363.0;6340199.0
10:41:07.585;6065005.0;6339082.0
10:41:07.625;6064695.0;6337886.0
10:41:07.665;6065024.0;6337605.0
10:41:07.705;6065619.0;6338332.0
10:41:07.745;6065745.0;6338771.0
10:41:07.785;6065650.0;6338675.0
10:41:07.825;6065738.0;6338564.0
10:41:07.865;6065818.0;6339065.0
10:41:07.905;6065819.0;6339312.0
10:41:07.945;6066139.0;6339584.0
10:41:07.985;6066117.0;6340150.0
10:41:08.025;6066318.0;6340839.0
10:41:08.065;6066300.0;6340927.0
10:41:08.105;6066069.0;6340762.0
10:41:08.145;6066204.0;6340631.0
10:41:08.185;6066025.0;6340330.0
10:41:08.352;6065781.0;6339930.0
10:41:08.392;6065508.0;6338067.0
10:41:08.432;6065014.0;6336472.0
10:41:08.472;6064669.0;6336166.0
10:41:08.512;6064778.0;6335729.0
10:41:08.552;6064617.0;6335128.0
10:41:08.592;6064673.0;6335116.0
10:41:08.632;6065334.0;6335824.0
10:41:08.672;6065422.0;6336584.0
10:41:08.712;6065584.0;6336534.0
10:41:08.752;6065597.0;6336231.0
10:41:08.792;6065781.0;6337069.0
10:41:08.832;6065972.0;6337310.0
10:41:08.872;6066009.0;6337224.0
10:41:08.912;6065868.0;6337093.0
10:41:08.952;6065816.0;6337003.0
10:41:08.992;6065649.0;6336595.0
10:41:09.032;6065600.0;6335796.0
10:41:09.072;6065411.0;6334678.0
10:41:09.112;6065331.0;6333876.0
10:41:09.152;6065262.0;6333037.0
10:41:09.192;6065072.0;6331337.0
10:41:09.232;6065046.0;6331129.0
10:41:09.272;6065182.0;6331149.0
10:41:09.312;6064995.0;6331052.0
10:41:09.352;6071297.0;6336621.0
10:41:09.392;6065175.0;6332096.0
10:41:09.432;6064989.0;6331223.0
10:41:09.472;6065015.0;6331058.0
10:41:09.512;6065002.0;6331617.0
10:41:09.552;6065006.0;6331824.0
10:41:09.592;6065008.0;6332357.0
10:41:09.632;6065901.0;6333525.0
10:41:09.672;6066088.0;6334912.0
10:41:09.712;6066203.0;6335575.0
10:41:09.752;6065960.0;6335738.0
10:41:09.792;6065862.0;6335860.0
10:41:09.832;6065941.0;6336168.0
10:41:09.872;6065840.0;6336151.0
10:41:09.912;6065767.0;6335879.0
10:41:09.952;6065683.0;6335542.0
10:41:09.992;6065604.0;6335213.0
10:41:10.032;6065446.0;6334737.0
10:41:10.072;6065310.0;6334062.0
10:41:10.112;6065252.0;6333779.0
10:41:10.152;6065222.0;6333814.0
10:41:10.192;6065290.0;6333807.0
10:41:10.232;6065270.0;6334188.0
10:41:10.272;6065436.0;6335260.0
10:41:10.312;6065507.0;6339372.0
10:41:10.352;6067153.0;6343731.0
10:41:10.392;6066756.0;6341010.0
10:41:10.432;6065597.0;6341878.0
10:41:10.472;6065570.0;6340869.0
10:41:10.512;6065691.0;6341316.0
10:41:10.552;6065528.0;6341123.0
10:41:10.592;6065321.0;6340593.0
10:41:10.632;6065523.0;6341544.0
10:41:10.672;6066051.0;6342387.0
10:41:10.712;6066127.0;6342408.0
10:41:10.752;6065922.0;6341876.0
10:41:10.792;6065585.0;6341083.0
10:41:10.832;6065625.0;6340696.0
10:41:10.872;6065473.0;6340097.0
10:41:10.912;6065352.0;6339449.0
10:41:10.952;6065327.0;6339068.0
10:41:10.992;6065364.0;6338568.0
10:41:11.032;6065515.0;6338710.0
10:41:11.072;6065433.0;6338980.0
10:41:11.112;6065574.0;6339371.0
10:41:11.152;6065717.0;6339571.0
10:41:11.192;6065824.0;6339970.0
10:41:11.232;6065677.0;6340383.0
10:41:11.272;6066044.0;6340890.0
10:41:11.312;6065993.0;6340375.0
10:41:11.352;6065842.0;6340344.0
10:41:11.392;6073194.0;6346666.0
10:41:11.432;6066091.0;6341395.0
10:41:11.472;6065501.0;6340106.0
10:41:11.512;6065177.0;6338892.0
10:41:11.552;6064843.0;6337556.0
10:41:11.592;6064707.0;6336663.0
10:41:11.632;6064570.0;6336226.0
10:41:11.672;6065121.0;6336166.0
10:41:11.712;6065206.0;6336689.0
10:41:11.752;6065182.0;6336553.0
10:41:11.792;6065066.0;6336513.0
10:41:11.832;6065280.0;6336393.0
10:41:11.872;6065286.0;6336867.0
10:41:11.912;6065414.0;6337268.0
10:41:11.952;6065678.0;6337812.0
10:41:11.992;6065877.0;6338287.0
10:41:12.032;6065939.0;6338732.0
10:41:12.072;6065985.0;6339238.0
10:41:12.112;6066030.0;6339404.0
10:41:12.152;6066022.0;6339179.0
10:41:12.192;6065891.0;6338491.0
10:41:12.232;6065885.0;6337099.0
10:41:12.272;6065821.0;6336378.0
10:41:12.312;6065679.0;6336332.0
10:41:13.825;6065523.0;6335897.0
10:41:13.865;6064580.0;6331762.0
10:41:13.905;6064390.0;6329957.0
10:41:13.945;6064224.0;6329768.0
10:41:13.985;6064828.0;6330317.0
10:41:14.025;6065216.0;6331343.0
10:41:14.065;6065381.0;6331100.0
10:41:14.105;6065307.0;6330889.0
10:41:14.145;6065456.0;6330675.0
10:41:14.185;6065700.0;6331449.0
10:41:14.225;6065860.0;6332382.0
10:41:14.265;6065964.0;6332617.0
10:41:14.305;6066071.0;6333246.0
10:41:14.345;6065986.0;6333308.0
10:41:14.385;6065863.0;6333333.0
10:41:14.425;6065886.0;6333362.0
10:41:14.465;6065836.0;6333173.0
10:41:14.505;6065718.0;6332666.0
10:41:14.545;6065550.0;6332094.0
10:41:14.585;6065384.0;6332305.0
10:41:14.625;6065354.0;6332263.0
10:41:14.665;6065187.0;6332218.0
10:41:14.705;6067001.0;6333787.0
10:41:14.745;6065140.0;6330889.0
10:41:14.785;6064860.0;6331252.0
10:41:14.825;6064722.0;6330755.0
10:41:14.865;6064797.0;6331051.0
10:41:14.905;6064765.0;6331534.0
10:41:14.945;6064733.0;6332196.0
10:41:14.985;6065344.0;6333752.0
10:41:15.025;6065879.0;6334642.0
10:41:15.065;6065908.0;6335852.0
10:41:15.105;6065840.0;6336596.0
10:41:15.145;6065716.0;6337385.0
10:41:15.185;6065653.0;6339543.0
10:41:15.225;6065774.0;6341760.0
10:41:15.265;6065719.0;6343084.0
10:41:15.305;6065604.0;6341572.0
10:41:15.345;6065548.0;6341367.0
10:41:15.385;6065357.0;6340304.0
10:41:15.425;6065205.0;6340384.0
10:41:15.465;6065401.0;6339672.0
10:41:15.505;6065338.0;6339169.0
10:41:15.545;6065379.0;6338708.0
10:41:15.585;6065448.0;6338452.0
10:41:15.625;6065396.0;6338891.0
10:41:15.665;6065575.0;6339143.0
10:41:15.705;6066366.0;6339129.0
10:41:15.745;6070679.0;6340275.0
10:41:15.785;6065649.0;6340164.0
10:41:15.825;6065498.0;6339125.0
10:41:15.865;6065429.0;6339133.0
10:41:15.905;6065197.0;6339138.0
10:41:15.945;6065136.0;6338792.0
10:41:15.985;6065175.0;6338979.0
10:41:16.025;6065732.0;6340057.0
10:41:16.065;6065846.0;6340257.0
10:41:16.105;6065437.0;6339658.0
10:41:16.145;6065321.0;6338754.0
10:41:16.185;6065184.0;6338517.0
10:41:16.225;6064941.0;6338222.0
10:41:16.265;6065056.0;6337821.0
10:41:16.305;6065048.0;6337626.0
10:41:16.345;6065033.0;6337462.0
10:41:16.385;6065084.0;6337198.0
10:41:16.425;6065211.0;6337331.0
10:41:16.465;6065283.0;6337488.0
10:41:16.505;6065293.0;6337807.0
10:41:16.545;6065569.0;6338304.0
10:41:16.585;6065408.0;6338734.0
10:41:16.625;6065826.0;6339047.0
10:41:16.665;6065852.0;6339508.0
10:41:16.705;6065593.0;6339649.0
10:41:16.745;6072386.0;6346740.0
10:41:16.785;6065756.0;6340220.0
10:41:16.825;6065258.0;6338724.0
10:41:16.865;6065065.0;6338211.0
10:41:16.905;6064905.0;6337402.0
10:41:16.945;6064692.0;6336874.0
10:41:16.985;6064380.0;6335547.0
10:41:17.025;6064865.0;6334803.0
10:41:17.065;6065007.0;6335059.0
10:41:17.105;6065018.0;6334453.0
10:41:17.145;6064830.0;6333560.0
10:41:17.185;6064819.0;6333306.0
10:41:17.225;6064914.0;6333277.0
10:41:17.265;6065036.0;6333283.0
10:41:17.305;6065075.0;6333587.0
10:41:17.345;6065369.0;6334152.0
10:41:17.385;6065375.0;6334399.0
10:41:17.425;6065525.0;6334988.0
10:41:17.465;6065575.0;6335445.0
10:41:17.505;6065673.0;6335698.0
10:41:17.545;6065641.0;6335801.0
10:41:17.585;6065564.0;6335609.0
10:41:17.625;6065535.0;6335433.0
10:41:17.665;6065392.0;6335168.0
10:41:17.705;6065296.0;6334608.0
10:41:17.745;6069524.0;6338582.0
10:41:17.785;6065096.0;6332956.0
10:41:17.328;6064628.0;6331381.0
10:41:17.368;6065530.0;6333323.0
10:41:17.408;6065417.0;6333604.0
10:41:17.448;6065162.0;6332612.0
10:41:17.488;6064942.0;6331872.0
10:41:17.528;6064837.0;6331605.0
10:41:17.568;6064780.0;6331620.0
10:41:17.608;6064755.0;6331187.0
10:41:17.648;6064742.0;6331127.0
10:41:17.688;6064849.0;6330734.0
10:41:17.728;6064890.0;6330800.0
10:41:17.768;6064868.0;6331242.0
10:41:17.808;6064986.0;6331271.0
10:41:17.848;6065160.0;6331571.0
10:41:17.888;6065326.0;6332007.0
10:41:17.928;6065370.0;6332707.0
10:41:17.968;6065508.0;6333550.0
10:41:18.008;6065530.0;6334201.0
10:41:18.048;6065304.0;6334472.0
10:41:18.088;6073066.0;6340927.0
10:41:18.128;6065436.0;6335757.0
10:41:18.168;6065094.0;6334822.0
10:41:18.208;6064893.0;6334010.0
10:41:18.248;6064928.0;6333893.0
10:41:18.288;6064540.0;6333940.0
10:41:18.328;6064359.0;6334847.0
10:41:18.368;6065002.0;6334882.0
10:41:18.408;6065030.0;6336615.0
10:41:18.448;6064944.0;6338069.0
10:41:18.488;6064784.0;6339391.0
10:41:18.528;6064760.0;6339514.0
10:41:18.568;6064867.0;6339018.0
10:41:18.608;6064961.0;6338917.0
10:41:18.648;6065081.0;6339664.0
10:41:18.688;6065248.0;6340089.0
10:41:18.728;6065260.0;6340202.0
10:41:18.768;6065613.0;6340609.0
10:41:18.808;6065563.0;6340678.0
10:41:18.848;6065738.0;6341085.0
10:41:18.888;6065859.0;6341487.0
10:41:18.928;6065754.0;6341670.0
10:41:18.968;6065765.0;6341452.0
10:41:19.008;6065752.0;6341372.0
10:41:19.048;6065478.0;6340990.0
10:41:19.088;6070659.0;6345314.0
10:41:19.128;6065255.0;6340248.0
10:41:19.168;6064668.0;6337870.0
10:41:19.208;6064340.0;6337225.0
10:41:19.248;6064276.0;6336543.0
10:41:19.288;6064162.0;6335712.0
10:41:19.328;6063985.0;6335486.0
10:41:19.368;6064802.0;6336120.0
10:41:19.408;6065027.0;6337523.0
10:41:19.448;6065192.0;6337920.0
10:41:19.488;6065137.0;6338108.0
10:41:19.528;6065230.0;6338598.0
10:41:19.568;6065244.0;6339139.0
10:41:19.608;6065530.0;6339171.0
10:41:19.648;6065658.0;6339916.0
10:41:19.688;6065640.0;6340341.0
10:41:19.728;6065698.0;6340456.0
10:41:19.768;6065621.0;6340553.0
10:41:19.808;6065517.0;6340482.0
10:41:19.848;6065468.0;6340033.0
10:41:19.888;6065224.0;6339522.0
10:41:19.928;6065131.0;6338935.0
10:41:19.968;6064935.0;6338351.0
10:41:20.008;6064877.0;6337715.0
10:41:20.048;6064831.0;6337424.0
10:41:20.088;6065412.0;6337137.0
10:41:20.128;6068820.0;6337850.0
10:41:20.168;6064620.0;6337137.0
10:41:20.208;6064509.0;6336289.0
10:41:20.248;6064486.0;6336516.0
10:41:20.288;6064490.0;6336208.0
10:41:20.328;6064133.0;6335888.0
10:41:20.368;6064629.0;6335873.0
10:41:20.408;6065278.0;6334921.0
10:41:20.448;6065527.0;6337205.0
10:41:20.488;6065516.0;6337341.0
10:41:20.528;6065478.0;6337255.0
10:41:20.568;6065528.0;6337402.0
10:41:20.608;6065241.0;6336514.0
10:41:20.648;6065201.0;6335902.0
10:41:20.688;6065073.0;6335408.0
10:41:20.728;6065153.0;6334860.0
10:41:20.768;6064735.0;6334011.0
10:41:20.808;6064765.0;6333664.0
10:41:20.848;6064621.0;6333542.0
10:41:20.888;6064563.0;6332721.0
10:41:20.928;6064669.0;6332259.0
10:41:20.968;6064698.0;6331724.0
10:41:21.008;6064711.0;6331892.0
10:41:21.048;6064817.0;6332004.0
10:41:21.088;6064823.0;6332211.0
10:41:21.128;6071473.0;6338081.0
10:41:21.168;6065114.0;6333916.0
10:41:21.208;6064899.0;6332977.0
10:41:21.248;6064867.0;6333057.0
10:41:21.288;6064889.0;6333885.0
10:41:21.519;6064678.0;6333759.0
10:41:21.559;6064699.0;6332493.0
10:41:21.599;6064658.0;6332783.0
10:41:21.639;6064825.0;6334032.0
10:41:21.679;6065080.0;6334181.0
10:41:21.719;6065291.0;6335165.0
10:41:21.759;6065316.0;6334969.0
10:41:21.799;6065372.0;6335390.0
10:41:21.839;6065444.0;6335978.0
10:41:21.879;6065571.0;6336367.0
10:41:21.919;6065297.0;6335988.0
10:41:21.959;6065132.0;6335651.0
10:41:21.999;6065094.0;6335061.0
10:41:22.039;6064860.0;6334571.0
10:41:22.079;6064773.0;6334120.0
10:41:22.119;6064807.0;6333571.0
10:41:22.159;6071027.0;6338818.0
10:41:22.199;6064419.0;6333668.0
10:41:22.239;6064035.0;6332052.0
10:41:22.279;6064000.0;6331131.0
10:41:22.319;6063883.0;6331498.0
10:41:22.359;6063835.0;6331453.0
10:41:22.399;6063632.0;6332027.0
10:41:22.439;6064397.0;6332607.0
10:41:22.479;6064726.0;6334154.0
10:41:22.519;6064878.0;6335927.0
10:41:22.559;6064870.0;6337050.0
10:41:22.599;6064898.0;6338635.0
10:41:22.639;6064900.0;6339556.0
10:41:22.679;6065091.0;6339403.0
10:41:22.719;6065092.0;6340018.0
10:41:22.759;6064965.0;6340289.0
10:41:22.799;6065015.0;6339757.0
10:41:22.839;6064997.0;6339801.0
10:41:22.879;6064809.0;6339429.0
10:41:22.919;6064568.0;6338561.0
10:41:22.959;6064508.0;6338012.0
10:41:22.999;6064313.0;6337192.0
10:41:23.039;6064255.0;6336533.0
10:41:23.079;6064119.0;6335971.0
10:41:23.119;6064165.0;6336058.0
10:41:23.159;6064143.0;6335520.0
10:41:23.199;6072114.0;6338462.0
10:41:23.239;6064248.0;6336491.0
10:41:23.279;6064030.0;6335440.0
10:41:23.319;6064051.0;6336004.0
10:41:23.359;6064099.0;6336340.0
10:41:23.399;6064164.0;6336296.0
10:41:23.439;6064377.0;6337217.0
10:41:23.479;6065352.0;6339136.0
10:41:23.519;6065453.0;6340175.0
10:41:23.559;6065420.0;6340395.0
10:41:23.599;6065281.0;6339807.0
10:41:23.639;6065149.0;6339360.0
10:41:23.679;6064993.0;6338967.0
10:41:23.719;6064913.0;6338638.0
10:41:23.759;6064777.0;6338161.0
10:41:23.799;6064602.0;6337665.0
10:41:23.839;6064515.0;6337128.0
10:41:23.879;6064472.0;6336796.0
10:41:23.919;6064368.0;6336297.0
10:41:23.959;6064381.0;6335739.0
10:41:23.999;6064200.0;6335674.0
10:41:24.039;6064445.0;6335747.0
10:41:24.079;6064651.0;6336135.0
10:41:24.119;6065070.0;6336883.0
10:41:24.159;6065322.0;6337162.0
10:41:24.199;6067189.0;6344420.0
10:41:24.239;6065903.0;6343324.0
10:41:24.279;6065546.0;6342829.0
10:41:24.319;6065151.0;6342123.0
10:41:24.359;6064986.0;6342218.0
10:41:24.399;6065040.0;6341353.0
10:41:24.439;6064692.0;6340154.0
10:41:24.479;6064963.0;6338634.0
10:41:24.519;6065332.0;6338089.0
10:41:24.559;6064633.0;6339602.0
10:41:24.599;6064340.0;6340435.0
10:41:24.639;6064516.0;6339763.0
10:41:24.679;6064232.0;6340039.0
10:41:24.719;6064385.0;6340280.0
10:41:24.759;6063722.0;6340415.0
10:41:24.799;6063836.0;6339648.0
10:41:24.839;6064037.0;6339073.0
10:41:24.879;6064056.0;6339174.0
10:41:24.919;6064118.0;6342001.0
10:41:24.959;6064183.0;6338378.0
10:41:24.999;6064793.0;6337203.0
10:41:25.039;6065277.0;6333884.0
10:41:25.079;6065480.0;6333605.0
10:41:25.119;6065055.0;6334182.0
10:41:25.159;6065087.0;6333163.0
10:41:25.199;6064803.0;6333626.0
10:41:25.239;6072229.0;6339605.0
10:41:25.279;6063712.0;6332659.0
10:41:25.319;6062657.0;6331489.0
10:41:25.359;6063262.0;6328972.0
10:41:25.399;6063517.0;6324968.0
10:41:25.439;6063102.0;6322819.0
10:41:25.479;6062847.0;6321687.0
10:41:26.296;6064037.0;6318917.0
10:41:26.336;6064968.0;6329550.0
10:41:26.376;6065238.0;6330489.0
10:41:26.416;6065370.0;6330905.0
10:41:26.456;6065107.0;6330890.0
10:41:26.496;6064995.0;6330239.0
10:41:26.536;6064668.0;6329714.0
10:41:26.576;6064415.0;6329402.0
10:41:26.616;6064137.0;6329179.0
10:41:26.656;6064071.0;6329113.0
10:41:26.696;6063627.0;6329735.0
10:41:26.736;6064200.0;6329003.0
10:41:26.776;6063835.0;6330365.0
10:41:26.816;6070310.0;6335675.0
10:41:26.856;6064014.0;6332103.0
10:41:26.896;6064113.0;6330960.0
10:41:26.936;6064126.0;6331265.0
10:41:26.976;6064234.0;6332677.0
10:41:27.016;6064460.0;6333048.0
10:41:27.056;6064521.0;6333847.0
10:41:27.096;6065372.0;6336106.0
10:41:27.136;6065529.0;6337497.0
10:41:27.176;6065511.0;6337754.0
10:41:27.216;6065525.0;6337077.0
10:41:27.256;6065363.0;6336662.0
10:41:27.296;6065115.0;6336895.0
10:41:27.336;6065002.0;6336487.0
10:41:27.376;6064788.0;6336219.0
10:41:27.416;6064530.0;6335373.0
10:41:27.456;6064312.0;6334445.0
10:41:27.496;6064115.0;6333883.0
10:41:27.536;6064006.0;6333402.0
10:41:27.576;6063990.0;6333429.0
10:41:27.616;6064200.0;6333695.0
10:41:27.656;6064307.0;6334085.0
10:41:27.696;6064510.0;6335089.0
10:41:27.736;6064770.0;6337115.0
10:41:27.776;6064947.0;6339564.0
10:41:27.816;6064931.0;6340781.0
10:41:27.856;6072751.0;6348664.0
10:41:27.896;6065424.0;6343352.0
10:41:27.936;6065187.0;6341693.0
10:41:27.976;6064839.0;6341953.0
10:41:28.016;6064901.0;6342236.0
10:41:28.056;6064589.0;6341927.0
10:41:28.096;6064366.0;6342227.0
10:41:28.136;6064978.0;6341621.0
10:41:28.176;6064693.0;6339899.0
10:41:28.216;6064286.0;6337851.0
10:41:28.256;6063950.0;6334944.0
10:41:28.296;6063826.0;6334398.0
10:41:28.336;6063810.0;6334977.0
10:41:28.376;6063866.0;6334237.0
10:41:28.416;6064001.0;6334874.0
10:41:28.456;6064123.0;6335027.0
10:41:28.496;6064334.0;6335671.0
10:41:28.536;6064582.0;6336476.0
10:41:28.576;6064826.0;6337563.0
10:41:28.616;6064942.0;6338823.0
10:41:28.656;6065228.0;6340839.0
10:41:28.696;6065467.0;6342115.0
10:41:28.736;6065517.0;6342874.0
10:41:28.776;6065666.0;6342629.0
10:41:28.816;6065610.0;6342316.0
10:41:28.856;6065866.0;6341716.0
10:41:28.896;6071375.0;6343451.0
10:41:28.936;6064976.0;6341792.0
10:41:28.976;6064330.0;6339942.0
10:41:29.016;6064030.0;6339336.0
10:41:29.056;6063733.0;6338764.0
10:41:29.096;6063228.0;6336947.0
10:41:29.136;6063160.0;6335853.0
10:41:29.176;6063828.0;6336330.0
10:41:29.216;6063821.0;6337067.0
10:41:29.256;6063722.0;6336694.0
10:41:29.296;6063841.0;6336319.0
10:41:29.336;6063991.0;6335189.0
10:41:29.376;6064242.0;6332585.0
10:41:29.416;6064509.0;6331272.0
10:41:29.456;6064678.0;6332381.0
10:41:29.496;6065274.0;6334455.0
10:41:29.536;6065289.0;6335473.0
10:41:29.576;6065262.0;6336047.0
10:41:29.616;6065336.0;6336801.0
10:41:29.656;6065241.0;6336999.0
10:41:29.696;6064751.0;6335202.0
10:41:29.736;6064559.0;6334707.0
10:41:29.776;6064237.0;6334338.0
10:41:29.816;6064113.0;6333512.0
10:41:29.856;6064081.0;6333072.0
10:41:29.896;6065640.0;6334875.0
10:41:29.936;6064545.0;6332428.0
10:41:29.976;6063798.0;6333095.0
10:41:30.016;6063728.0;6332737.0
10:41:30.056;6063905.0;6333272.0
10:41:30.096;6063899.0;6333680.0
10:41:30.136;6063888.0;6333890.0
10:41:30.176;6064399.0;6334127.0
10:41:30.216;6065290.0;6335623.0
10:41:30.256;6065156.0;6336597.0
10:41:32.606;6064909.0;6336755.0
10:41:32.646;6064876.0;6336568.0
10:41:32.686;6064571.0;6336067.0
10:41:32.726;6064384.0;6335469.0
10:41:32.766;6064248.0;6334822.0
10:41:32.806;6064100.0;6334269.0
10:41:32.846;6064031.0;6333903.0
10:41:32.886;6064065.0;6333905.0
10:41:32.926;6064087.0;6333839.0
10:41:32.966;6064188.0;6334025.0
10:41:33.006;6064259.0;6333616.0
10:41:33.046;6072203.0;6338396.0
10:41:33.086;6064478.0;6335969.0
10:41:33.126;6063996.0;6335395.0
10:41:33.166;6064123.0;6335948.0
10:41:33.206;6064380.0;6336419.0
10:41:33.246;6064079.0;6336476.0
10:41:33.286;6064190.0;6336322.0
10:41:33.326;6064935.0;6336877.0
10:41:33.366;6064786.0;6337525.0
10:41:33.406;6064598.0;6337229.0
10:41:33.446;6064410.0;6336724.0
10:41:33.486;6064245.0;6336521.0
10:41:33.526;6064111.0;6335991.0
10:41:33.566;6064098.0;6335716.0
10:41:33.606;6064036.0;6335567.0
10:41:33.646;6063989.0;6335390.0
10:41:33.686;6064033.0;6335384.0
10:41:33.726;6064005.0;6335565.0
10:41:33.766;6064237.0;6335722.0
10:41:33.806;6064334.0;6336171.0
10:41:33.846;6064456.0;6336770.0
10:41:33.886;6064571.0;6337267.0
10:41:33.926;6064689.0;6337756.0
10:41:33.966;6064796.0;6338218.0
10:41:34.006;6064842.0;6338705.0
10:41:34.046;6066804.0;6341403.0
10:41:34.086;6064872.0;6338374.0
10:41:34.126;6064479.0;6338067.0
10:41:34.166;6064131.0;6337364.0
10:41:34.206;6063916.0;6336819.0
10:41:34.246;6063756.0;6335996.0
10:41:34.286;6063409.0;6334922.0
10:41:34.326;6063664.0;6334063.0
10:41:34.366;6064235.0;6334674.0
10:41:34.406;6064038.0;6334654.0
10:41:34.446;6063920.0;6334411.0
10:41:34.486;6063928.0;6334552.0
10:41:34.526;6063846.0;6334883.0
10:41:34.566;6064098.0;6335142.0
10:41:34.606;6064280.0;6335700.0
10:41:34.646;6064430.0;6336292.0
10:41:34.686;6064583.0;6337057.0
10:41:34.726;6064696.0;6337681.0
10:41:34.766;6064860.0;6338169.0
10:41:34.806;6064845.0;6338401.0
10:41:34.846;6064795.0;6338518.0
10:41:34.886;6064731.0;6338470.0
10:41:34.926;6064740.0;6338406.0
10:41:34.966;6064554.0;6337981.0
10:41:35.006;6064564.0;6337378.0
10:41:35.046;6064136.0;6337081.0
10:41:35.086;6071539.0;6342338.0
10:41:35.126;6064084.0;6336862.0
10:41:35.166;6063573.0;6335101.0
10:41:35.206;6063377.0;6334241.0
10:41:35.246;6063289.0;6333997.0
10:41:35.286;6063160.0;6333573.0
10:41:35.326;6063213.0;6333381.0
10:41:35.366;6063945.0;6333743.0
10:41:35.406;6064312.0;6334979.0
10:41:35.446;6064435.0;6335750.0
10:41:35.486;6064447.0;6336177.0
10:41:35.526;6064549.0;6336892.0
10:41:35.566;6064800.0;6337538.0
10:41:35.606;6064910.0;6338210.0
10:41:35.646;6064936.0;6338664.0
10:41:35.686;6064867.0;6338541.0
10:41:35.726;6064703.0;6338254.0
10:41:35.766;6064484.0;6337863.0
10:41:35.806;6064439.0;6337167.0
10:41:35.846;6064292.0;6336601.0
10:41:35.886;6064177.0;6336131.0
10:41:35.926;6064044.0;6335528.0
10:41:35.966;6064023.0;6335277.0
10:41:36.006;6063996.0;6335153.0
10:41:36.046;6064135.0;6335294.0
10:41:36.086;6064864.0;6335369.0
10:41:36.126;6067854.0;6336293.0
10:41:36.166;6064129.0;6336553.0
10:41:36.206;6064030.0;6336006.0
10:41:36.246;6064126.0;6336463.0
10:41:36.286;6064050.0;6336967.0
10:41:36.326;6064075.0;6337254.0
10:41:36.366;6064270.0;6337454.0
10:41:36.406;6065002.0;6338291.0
10:41:36.446;6064813.0;6338972.0
10:41:36.486;6064649.0;6338746.0
10:41:36.526;6064501.0;6338287.0
10:41:36.566;6064444.0;6338029.0
10:41:35.727;6064276.0;6337482.0
10:41:35.767;6064267.0;6337707.0
10:41:35.807;6064208.0;6337748.0
10:41:35.847;6063981.0;6337481.0
10:41:35.887;6063743.0;6337011.0
10:41:35.927;6063869.0;6336362.0
10:41:35.967;6064598.0;6336691.0
10:41:36.007;6064273.0;6336788.0
10:41:36.047;6063973.0;6336237.0
10:41:36.087;6063815.0;6335637.0
10:41:36.127;6063692.0;6335256.0
10:41:36.167;6063717.0;6334927.0
10:41:36.207;6063776.0;6335023.0
10:41:36.247;6063890.0;6335229.0
10:41:36.287;6063899.0;6335382.0
10:41:36.327;6063992.0;6335296.0
10:41:36.367;6064118.0;6335743.0
10:41:36.407;6064265.0;6336174.0
10:41:36.447;6064406.0;6336782.0
10:41:36.487;6064525.0;6337265.0
10:41:36.527;6064627.0;6337835.0
10:41:36.567;6064726.0;6338383.0
10:41:36.607;6064760.0;6338719.0
10:41:36.647;6064705.0;6338759.0
10:41:36.687;6069684.0;6343190.0
10:41:36.727;6064517.0;6338800.0
10:41:36.767;6064059.0;6337520.0
10:41:36.807;6063734.0;6336730.0
10:41:36.847;6063554.0;6336139.0
10:41:36.887;6063371.0;6335337.0
10:41:36.927;6063147.0;6334550.0
10:41:36.967;6063446.0;6334346.0
10:41:37.007;6063994.0;6334765.0
10:41:37.047;6063824.0;6335013.0
10:41:37.087;6063815.0;6335131.0
10:41:37.127;6063864.0;6335421.0
10:41:37.167;6064007.0;6335920.0
10:41:37.207;6064285.0;6336574.0
10:41:37.247;6064381.0;6337323.0
10:41:37.287;6064407.0;6337983.0
10:41:37.327;6064498.0;6338508.0
10:41:37.367;6064706.0;6338502.0
10:41:37.407;6064679.0;6338999.0
10:41:37.447;6064714.0;6339184.0
10:41:37.487;6064676.0;6339231.0
10:41:37.527;6064589.0;6339183.0
10:41:37.567;6064441.0;6338909.0
10:41:37.607;6064303.0;6338473.0
10:41:37.647;6064240.0;6337956.0
10:41:37.687;6063851.0;6337206.0
10:41:37.727;6071002.0;6341988.0
10:41:37.767;6063599.0;6336918.0
10:41:37.807;6063299.0;6335132.0
10:41:37.847;6063177.0;6334778.0
10:41:37.887;6063113.0;6334787.0
10:41:37.927;6062954.0;6334433.0
10:41:37.967;6063073.0;6334380.0
10:41:38.007;6063713.0;6334260.0
10:41:38.047;6064091.0;6335806.0
10:41:38.087;6064063.0;6336464.0
10:41:38.127;6064099.0;6336890.0
10:41:38.167;6064267.0;6337653.0
10:41:38.207;6064500.0;6338208.0
10:41:38.247;6064505.0;6338872.0
10:41:38.287;6064513.0;6339204.0
10:41:38.327;6064490.0;6339179.0
10:41:38.367;6064397.0;6339091.0
10:41:38.407;6064309.0;6338762.0
10:41:38.447;6064086.0;6338233.0
10:41:38.487;6064093.0;6337581.0
10:41:38.527;6063888.0;6337063.0
10:41:38.567;6063746.0;6336471.0
10:41:38.607;6063650.0;6335927.0
10:41:38.647;6063597.0;6335529.0
10:41:38.687;6063625.0;6335501.0
10:41:38.727;6063429.0;6334792.0
10:41:38.767;6071122.0;6340581.0
10:41:38.807;6063806.0;6336243.0
10:41:38.847;6063609.0;6335704.0
10:41:38.887;6063649.0;6336130.0
10:41:38.927;6063549.0;6336599.0
10:41:38.967;6063570.0;6336708.0
10:41:39.007;6063691.0;6336954.0
10:41:39.047;6064549.0;6337506.0
10:41:39.087;6064416.0;6338390.0
10:41:39.127;6064335.0;6338499.0
10:41:39.167;6064167.0;6338276.0
10:41:39.207;6063973.0;6337915.0
10:41:39.247;6063888.0;6337324.0
10:41:39.287;6063778.0;6336983.0
10:41:39.327;6063735.0;6336616.0
10:41:39.367;6063636.0;6336074.0
10:41:39.407;6063646.0;6335686.0
10:41:39.447;6063580.0;6335424.0
10:41:39.487;6063675.0;6335452.0
10:41:39.527;6063649.0;6335687.0
10:41:39.567;6063714.0;6335813.0
10:41:39.607;6063904.0;6336210.0
10:41:39.647;6064038.0;6336783.0
10:41:39.687;6064201.0;6337258.0
