Time;Ecg 1;Ecg 2
09:42:41.331;6149245.0;6192772.0
09:42:41.371;6151284.0;6192678.0
09:42:41.411;6146220.0;6185351.0
09:42:41.451;6149838.0;6193522.0
09:42:41.491;6149779.0;6193350.0
09:42:41.531;6149093.0;6193015.0
09:42:41.571;6149049.0;6192758.0
09:42:41.611;6150954.0;6194630.0
09:42:41.651;6150799.0;6195107.0
09:42:41.691;6150041.0;6193819.0
09:42:41.731;6149266.0;6192634.0
09:42:41.771;6149870.0;6192874.0
09:42:41.811;6149252.0;6192781.0
09:42:41.851;6149942.0;6185620.0
09:42:41.891;6149387.0;6193498.0
09:42:41.931;6149714.0;6193046.0
09:42:41.971;6149720.0;6192962.0
09:42:42.011;6149330.0;6193329.0
09:42:42.051;6150119.0;6195535.0
09:42:42.091;6150388.0;6195834.0
09:42:42.131;6149652.0;6194361.0
09:42:42.171;6149954.0;6193447.0
09:42:42.211;6150176.0;6193195.0
09:42:42.251;6149098.0;6192672.0
09:42:42.291;6149406.0;6193028.0
09:42:42.331;6150916.0;6194448.0
09:42:42.371;6150223.0;6193173.0
09:42:42.411;6149078.0;6192425.0
09:42:42.451;6149178.0;6192621.0
09:42:42.491;6150848.0;6194048.0
09:42:42.531;6149643.0;6192655.0
09:42:42.571;6149133.0;6192982.0
09:42:42.611;6148036.0;6187249.0
09:42:42.651;6150073.0;6192019.0
09:42:42.691;6149336.0;6192400.0
09:42:42.731;6149158.0;6192110.0
09:42:42.771;6149550.0;6192492.0
09:42:42.811;6149873.0;6194485.0
09:42:42.851;6150005.0;6194654.0
09:42:42.891;6150338.0;6193401.0
09:42:42.931;6149850.0;6191942.0
09:42:42.971;6149609.0;6191431.0
09:42:43.011;6149605.0;6193115.0
09:42:43.051;6149531.0;6192630.0
09:42:43.091;6149521.0;6192147.0
09:42:43.131;6149221.0;6193044.0
09:42:43.171;6146823.0;6185553.0
09:42:43.211;6149303.0;6192180.0
09:42:43.251;6149147.0;6192185.0
09:42:43.291;6149261.0;6191986.0
09:42:43.331;6150402.0;6193766.0
09:42:43.371;6149905.0;6193538.0
09:42:43.411;6150542.0;6194007.0
09:42:43.451;6150382.0;6193301.0
09:42:43.491;6149125.0;6191582.0
09:42:43.531;6149562.0;6192596.0
09:42:43.571;6149970.0;6192364.0
09:42:43.611;6149839.0;6192630.0
09:42:43.651;6149194.0;6192040.0
09:42:43.691;6150201.0;6193023.0
09:42:43.731;6149742.0;6192256.0
09:42:43.771;6149769.0;6193074.0
09:42:43.811;6146516.0;6185045.0
09:42:43.851;6149577.0;6191560.0
09:42:43.891;6149854.0;6193051.0
09:42:43.931;6150307.0;6193229.0
09:42:43.971;6149796.0;6192587.0
09:42:44.011;6149936.0;6192607.0
09:42:44.051;6150712.0;6194633.0
09:42:44.091;6151000.0;6194506.0
09:42:44.131;6150040.0;6192522.0
09:42:44.171;6149528.0;6191319.0
09:42:44.211;6151147.0;6193370.0
09:42:44.251;6149279.0;6192486.0
09:42:44.291;6149041.0;6192483.0
09:42:44.331;6150037.0;6184642.0
09:42:44.371;6150809.0;6192768.0
09:42:44.411;6149681.0;6192727.0
09:42:44.451;6149225.0;6192032.0
09:42:44.491;6149606.0;6192231.0
09:42:44.531;6151803.0;6194579.0
09:42:44.571;6150264.0;6195438.0
09:42:44.611;6150137.0;6193692.0
09:42:44.651;6149819.0;6191867.0
09:42:44.691;6150854.0;6192535.0
09:42:44.731;6149727.0;6192788.0
09:42:44.771;6149759.0;6192715.0
09:42:44.811;6149922.0;6191891.0
09:42:44.851;6149613.0;6191481.0
09:42:44.891;6149879.0;6193751.0
09:42:44.931;6149797.0;6192566.0
09:42:44.971;6149909.0;6191812.0
09:42:45.011;6149866.0;6191266.0
09:42:45.051;6150912.0;6193297.0
09:42:45.091;6150053.0;6193668.0
09:42:45.131;6147500.0;6186063.0
09:42:45.171;6150057.0;6190920.0
09:42:45.211;6149733.0;6191951.0
09:42:45.251;6150805.0;6193436.0
09:42:45.291;6150288.0;6193323.0
09:42:45.628;6150992.0;6193451.0
09:42:45.668;6149761.0;6191509.0
09:42:45.708;6150165.0;6193235.0
09:42:45.748;6154302.0;6190210.0
09:42:45.788;6150749.0;6181077.0
09:42:45.828;6151666.0;6189935.0
09:42:45.868;6149902.0;6194326.0
09:42:45.908;6149371.0;6194233.0
09:42:45.948;6149122.0;6194707.0
09:42:45.988;6148631.0;6197474.0
09:42:46.028;6149159.0;6200181.0
09:42:46.068;6149382.0;6196345.0
09:42:46.108;6150115.0;6193676.0
09:42:46.148;6149999.0;6192239.0
09:42:46.188;6151048.0;6193122.0
09:42:46.228;6149649.0;6192693.0
09:42:46.268;6149606.0;6192502.0
09:42:46.308;6152696.0;6194153.0
09:42:46.348;6149285.0;6189758.0
09:42:46.388;6150239.0;6192524.0
09:42:46.428;6149634.0;6192427.0
09:42:46.468;6150123.0;6192030.0
09:42:46.508;6151237.0;6193675.0
09:42:46.548;6150459.0;6193660.0
09:42:46.588;6150749.0;6193456.0
09:42:46.628;6150668.0;6192350.0
09:42:46.668;6150485.0;6193090.0
09:42:46.708;6149613.0;6191848.0
09:42:46.748;6149300.0;6191733.0
09:42:46.788;6150442.0;6192452.0
09:42:46.828;6152777.0;6194068.0
09:42:46.868;6146840.0;6186683.0
09:42:46.908;6149289.0;6191432.0
09:42:46.948;6150768.0;6192975.0
09:42:46.988;6150145.0;6193014.0
09:42:47.028;6149859.0;6192950.0
09:42:47.068;6150043.0;6193258.0
09:42:47.108;6151942.0;6194814.0
09:42:47.148;6150605.0;6192986.0
09:42:47.188;6149824.0;6192124.0
09:42:47.228;6149504.0;6191310.0
09:42:47.268;6150468.0;6192284.0
09:42:47.308;6150325.0;6193053.0
09:42:47.348;6150221.0;6192633.0
09:42:47.388;6149722.0;6191506.0
09:42:47.428;6149771.0;6191517.0
09:42:47.468;6150372.0;6193080.0
09:42:47.508;6150309.0;6192653.0
09:42:47.548;6149694.0;6191673.0
09:42:47.588;6149918.0;6191693.0
09:42:47.628;6150562.0;6193231.0
09:42:47.668;6150091.0;6192596.0
09:42:47.708;6149633.0;6191786.0
09:42:47.748;6149812.0;6191632.0
09:42:47.788;6151040.0;6193366.0
09:42:47.828;6150504.0;6192995.0
09:42:47.868;6146156.0;6184235.0
09:42:47.908;6149578.0;6191229.0
09:42:47.948;6151140.0;6193254.0
09:42:47.988;6150326.0;6193091.0
09:42:48.028;6150086.0;6192862.0
09:42:48.068;6150320.0;6192584.0
09:42:48.108;6152692.0;6194384.0
09:42:48.148;6151356.0;6194296.0
09:42:48.188;6149891.0;6192610.0
09:42:48.228;6149755.0;6191712.0
09:42:48.268;6150416.0;6191775.0
09:42:48.308;6150469.0;6193266.0
09:42:48.348;6150571.0;6193930.0
09:42:48.388;6150399.0;6193671.0
09:42:48.428;6148160.0;6182554.0
09:42:48.468;6151224.0;6192785.0
09:42:48.508;6150238.0;6193799.0
09:42:48.548;6150344.0;6193248.0
09:42:48.588;6150591.0;6193272.0
09:42:48.628;6151245.0;6194855.0
09:42:48.668;6151775.0;6197154.0
09:42:48.708;6151136.0;6194609.0
09:42:48.748;6150339.0;6191953.0
09:42:48.788;6150063.0;6191798.0
09:42:48.828;6151140.0;6193931.0
09:42:48.868;6150323.0;6193441.0
09:42:48.908;6150468.0;6192417.0
09:42:48.948;6150143.0;6191905.0
09:42:48.988;6150002.0;6191853.0
09:42:49.028;6150285.0;6193218.0
09:42:49.068;6152709.0;6194714.0
09:42:49.108;6148338.0;6188609.0
09:42:49.148;6150019.0;6191663.0
09:42:49.188;6150113.0;6191536.0
09:42:49.228;6150241.0;6193860.0
09:42:49.268;6150350.0;6193676.0
09:42:49.308;6150764.0;6193224.0
09:42:49.348;6151050.0;6192659.0
09:42:49.388;6151302.0;6193215.0
09:42:49.428;6150096.0;6192931.0
09:42:49.468;6150285.0;6191932.0
09:42:49.508;6150106.0;6191442.0
09:42:49.548;6150053.0;6191635.0
09:42:49.588;6150194.0;6192999.0
09:42:49.909;6150370.0;6192397.0
09:42:49.949;6152702.0;6194046.0
09:42:49.989;6148614.0;6188676.0
09:42:50.029;6149880.0;6191280.0
09:42:50.069;6150884.0;6192767.0
09:42:50.109;6150148.0;6193009.0
09:42:50.149;6150188.0;6192924.0
09:42:50.189;6150201.0;6192609.0
09:42:50.229;6150666.0;6192983.0
09:42:50.269;6151633.0;6193537.0
09:42:50.309;6150368.0;6192748.0
09:42:50.349;6150327.0;6192024.0
09:42:50.389;6150059.0;6191410.0
09:42:50.429;6149610.0;6191702.0
09:42:50.469;6150146.0;6193191.0
09:42:50.509;6153067.0;6194800.0
09:42:50.549;6148580.0;6188340.0
09:42:50.589;6149829.0;6191269.0
09:42:50.629;6149885.0;6191955.0
09:42:50.669;6150604.0;6193590.0
09:42:50.709;6150805.0;6193452.0
09:42:50.749;6150936.0;6193949.0
09:42:50.789;6150980.0;6193822.0
09:42:50.829;6150164.0;6192298.0
09:42:50.869;6150949.0;6193779.0
09:42:50.909;6150474.0;6192831.0
09:42:50.949;6150124.0;6192170.0
09:42:50.989;6149923.0;6191830.0
09:42:51.029;6152230.0;6192248.0
09:42:51.069;6148120.0;6185773.0
09:42:51.109;6151047.0;6193436.0
09:42:51.149;6150595.0;6192812.0
09:42:51.189;6150492.0;6192443.0
09:42:51.229;6150324.0;6192520.0
09:42:51.269;6152534.0;6195674.0
09:42:51.309;6152000.0;6195544.0
09:42:51.349;6151128.0;6193048.0
09:42:51.389;6150428.0;6191923.0
09:42:51.429;6150581.0;6192443.0
09:42:51.469;6150651.0;6193455.0
09:42:51.509;6150862.0;6193079.0
09:42:51.549;6150622.0;6192321.0
09:42:51.589;6150506.0;6192336.0
09:42:51.629;6150637.0;6193729.0
09:42:51.669;6150838.0;6193060.0
09:42:51.709;6150598.0;6192339.0
09:42:51.749;6150246.0;6192196.0
09:42:51.789;6153157.0;6193879.0
09:42:51.829;6147964.0;6186088.0
09:42:51.869;6151011.0;6192581.0
09:42:51.909;6150619.0;6192289.0
09:42:51.949;6150826.0;6192623.0
09:42:51.989;6150848.0;6193746.0
09:42:52.029;6151233.0;6194264.0
09:42:52.069;6151551.0;6194191.0
09:42:52.109;6151358.0;6193186.0
09:42:52.149;6151920.0;6193871.0
09:42:52.189;6150834.0;6193462.0
09:42:52.229;6150747.0;6192376.0
09:42:52.269;6150510.0;6192127.0
09:42:52.309;6150970.0;6192776.0
09:42:52.349;6150891.0;6193953.0
09:42:52.389;6150734.0;6193313.0
09:42:52.429;6152450.0;6192737.0
09:42:52.469;6147839.0;6185978.0
09:42:52.509;6151000.0;6193897.0
09:42:52.549;6150952.0;6194066.0
09:42:52.589;6150741.0;6193063.0
09:42:52.629;6150307.0;6193034.0
09:42:52.669;6151700.0;6194900.0
09:42:52.709;6151908.0;6196184.0
09:42:52.749;6151782.0;6193738.0
09:42:52.789;6150387.0;6192301.0
09:42:52.829;6150464.0;6192228.0
09:42:52.869;6150804.0;6193614.0
09:42:52.909;6151082.0;6193270.0
09:42:52.949;6150851.0;6192394.0
09:42:52.989;6150630.0;6192452.0
09:42:53.029;6154230.0;6195100.0
09:42:53.069;6149247.0;6190805.0
09:42:53.109;6150723.0;6192904.0
09:42:53.149;6150511.0;6192055.0
09:42:53.189;6150544.0;6192253.0
09:42:53.229;6150924.0;6194567.0
09:42:53.269;6151480.0;6195515.0
09:42:53.309;6152027.0;6194268.0
09:42:53.349;6150944.0;6192447.0
09:42:53.389;6151000.0;6192979.0
09:42:53.429;6150534.0;6193394.0
09:42:53.469;6150646.0;6192454.0
09:42:53.509;6150436.0;6191701.0
09:42:53.549;6150308.0;6192284.0
09:42:53.589;6150820.0;6193712.0
09:42:53.629;6153917.0;6195137.0
09:42:53.669;6149189.0;6189415.0
09:42:53.709;6150441.0;6192216.0
09:42:53.749;6150561.0;6193365.0
09:42:53.789;6150671.0;6193239.0
09:42:53.829;6150963.0;6193334.0
09:42:53.869;6151007.0;6193608.0
09:42:54.019;6152558.0;6195632.0
09:42:54.059;6153796.0;6196158.0
09:42:54.099;6149041.0;6190071.0
09:42:54.139;6150555.0;6191909.0
09:42:54.179;6150484.0;6192865.0
09:42:54.219;6150726.0;6193717.0
09:42:54.259;6151112.0;6193871.0
09:42:54.299;6151386.0;6194169.0
09:42:54.339;6152846.0;6194701.0
09:42:54.379;6150865.0;6193913.0
09:42:54.419;6150473.0;6192799.0
09:42:54.459;6150130.0;6191812.0
09:42:54.499;6151251.0;6192771.0
09:42:54.539;6151050.0;6193847.0
09:42:54.579;6150870.0;6193281.0
09:42:54.619;6150707.0;6192625.0
09:42:54.659;6150487.0;6192321.0
09:42:54.699;6155684.0;6196403.0
09:42:54.739;6148354.0;6188896.0
09:42:54.779;6150648.0;6192845.0
09:42:54.819;6150685.0;6192783.0
09:42:54.859;6150820.0;6192863.0
09:42:54.899;6152799.0;6195255.0
09:42:54.939;6151834.0;6195282.0
09:42:54.979;6152082.0;6194708.0
09:42:55.019;6151076.0;6192989.0
09:42:55.059;6150653.0;6192465.0
09:42:55.099;6151767.0;6194356.0
09:42:55.139;6151125.0;6193302.0
09:42:55.179;6151272.0;6193167.0
09:42:55.219;6151148.0;6192908.0
09:42:55.259;6150591.0;6192340.0
09:42:55.299;6151064.0;6194769.0
09:42:55.339;6149159.0;6187548.0
09:42:55.379;6151019.0;6191887.0
09:42:55.419;6150748.0;6192396.0
09:42:55.459;6151086.0;6193772.0
09:42:55.499;6151478.0;6194047.0
09:42:55.539;6151963.0;6194621.0
09:42:55.579;6151812.0;6193873.0
09:42:55.619;6152820.0;6194331.0
09:42:55.659;6151311.0;6193775.0
09:42:55.699;6151060.0;6193328.0
09:42:55.739;6150950.0;6192107.0
09:42:55.779;6150885.0;6191941.0
09:42:55.819;6149646.0;6190174.0
09:42:55.859;6150543.0;6192089.0
09:42:55.899;6151067.0;6192174.0
09:42:55.939;6151040.0;6192282.0
09:42:55.979;6151826.0;6193554.0
09:42:56.019;6151548.0;6194624.0
09:42:56.059;6152093.0;6194311.0
09:42:56.099;6151862.0;6192819.0
09:42:56.139;6151097.0;6192178.0
09:42:56.179;6151688.0;6193320.0
09:42:56.219;6151422.0;6193365.0
09:42:56.259;6151826.0;6192922.0
09:42:56.299;6151221.0;6192125.0
09:42:56.339;6153970.0;6193693.0
09:42:56.379;6149521.0;6189828.0
09:42:56.419;6151437.0;6192764.0
09:42:56.459;6151425.0;6192727.0
09:42:56.499;6151250.0;6192347.0
09:42:56.539;6151838.0;6193217.0
09:42:56.579;6152132.0;6194370.0
09:42:56.619;6152413.0;6194373.0
09:42:56.659;6151726.0;6192354.0
09:42:56.699;6151392.0;6191705.0
09:42:56.739;6151533.0;6192863.0
09:42:56.779;6151444.0;6193085.0
09:42:56.819;6151489.0;6192232.0
09:42:56.859;6152016.0;6192316.0
09:42:56.899;6151708.0;6192837.0
09:42:56.939;6151792.0;6193119.0
09:42:56.979;6151671.0;6192597.0
09:42:57.019;6155092.0;6194688.0
09:42:57.059;6148883.0;6187328.0
09:42:57.099;6151619.0;6192742.0
09:42:57.139;6151534.0;6192497.0
09:42:57.179;6151853.0;6192858.0
09:42:57.219;6152209.0;6194253.0
09:42:57.259;6152099.0;6194416.0
09:42:57.299;6152488.0;6194172.0
09:42:57.339;6152208.0;6192764.0
09:42:57.379;6153179.0;6193950.0
09:42:57.419;6151693.0;6193197.0
09:42:57.459;6151439.0;6192479.0
09:42:57.499;6151404.0;6192261.0
09:42:57.539;6152533.0;6194513.0
09:42:57.579;6148262.0;6186663.0
09:42:57.619;6151426.0;6192585.0
09:42:57.659;6151522.0;6192611.0
09:42:57.699;6151314.0;6192751.0
09:42:57.739;6151891.0;6194037.0
09:42:57.779;6151863.0;6194218.0
09:42:57.819;6153253.0;6195291.0
09:42:57.859;6152409.0;6194756.0
09:42:57.899;6151739.0;6193390.0
09:42:57.939;6151659.0;6192971.0
09:42:57.979;6151128.0;6192858.0
09:43:00.382;6151847.0;6193347.0
09:43:00.422;6151921.0;6193389.0
09:43:00.462;6151297.0;6193297.0
09:43:00.502;6152327.0;6194661.0
09:43:00.542;6153228.0;6195459.0
09:43:00.582;6152278.0;6194262.0
09:43:00.622;6152348.0;6193993.0
09:43:00.662;6152474.0;6193890.0
09:43:00.702;6151320.0;6193123.0
09:43:00.742;6151921.0;6193281.0
09:43:00.782;6152858.0;6194407.0
09:43:00.822;6152171.0;6193867.0
09:43:00.862;6151671.0;6193148.0
09:43:00.902;6151931.0;6193386.0
09:43:00.942;6152470.0;6193546.0
09:43:00.982;6151785.0;6193504.0
09:43:01.022;6151382.0;6192961.0
09:43:01.062;6152140.0;6193681.0
09:43:01.102;6151988.0;6193123.0
09:43:01.142;6153303.0;6192996.0
09:43:01.182;6148708.0;6186031.0
09:43:01.222;6152799.0;6193487.0
09:43:01.262;6151904.0;6193216.0
09:43:01.302;6151380.0;6193246.0
09:43:01.342;6152144.0;6194046.0
09:43:01.382;6152504.0;6193983.0
09:43:01.422;6152162.0;6194007.0
09:43:01.462;6152685.0;6193979.0
09:43:01.502;6152722.0;6193477.0
09:43:01.542;6151926.0;6193110.0
09:43:01.582;6151507.0;6192970.0
09:43:01.622;6152501.0;6193715.0
09:43:01.662;6152162.0;6193464.0
09:43:01.702;6151584.0;6193475.0
09:43:01.742;6151930.0;6193805.0
09:43:01.782;6152135.0;6193601.0
09:43:01.822;6154110.0;6193505.0
09:43:01.862;6149079.0;6187318.0
09:43:01.902;6152355.0;6193983.0
09:43:01.942;6152412.0;6192873.0
09:43:01.982;6151541.0;6193355.0
09:43:02.022;6151666.0;6193691.0
09:43:02.062;6152581.0;6194927.0
09:43:02.102;6152516.0;6194842.0
09:43:02.142;6152438.0;6194268.0
09:43:02.182;6152229.0;6193276.0
09:43:02.222;6152037.0;6192964.0
09:43:02.262;6151243.0;6192750.0
09:43:02.302;6151370.0;6192904.0
09:43:02.342;6152112.0;6193053.0
09:43:02.382;6152081.0;6192987.0
09:43:02.422;6151155.0;6192949.0
09:43:02.462;6151300.0;6193253.0
09:43:02.502;6151928.0;6193089.0
09:43:02.542;6152030.0;6193151.0
09:43:02.582;6151018.0;6192857.0
09:43:02.622;6151828.0;6193942.0
09:43:02.662;6151900.0;6194049.0
09:43:02.702;6147585.0;6185613.0
09:43:02.742;6150782.0;6192744.0
09:43:02.782;6152180.0;6194047.0
09:43:02.822;6152132.0;6193826.0
09:43:02.862;6151253.0;6193916.0
09:43:02.902;6151159.0;6193996.0
09:43:02.942;6152939.0;6195534.0
09:43:02.982;6153736.0;6195180.0
09:43:03.022;6151624.0;6193730.0
09:43:03.062;6151086.0;6192971.0
09:43:03.102;6152184.0;6193930.0
09:43:03.142;6152580.0;6193870.0
09:43:03.182;6150883.0;6193267.0
09:43:03.222;6151329.0;6193504.0
09:43:03.262;6152131.0;6194384.0
09:43:03.302;6151483.0;6194643.0
09:43:03.342;6150098.0;6188634.0
09:43:03.382;6150829.0;6191994.0
09:43:03.422;6152207.0;6194574.0
09:43:03.462;6152092.0;6194986.0
09:43:03.502;6152399.0;6194541.0
09:43:03.542;6152332.0;6194719.0
09:43:03.582;6152532.0;6196290.0
09:43:03.622;6153379.0;6196594.0
09:43:03.662;6152453.0;6194255.0
09:43:03.702;6151907.0;6193189.0
09:43:03.742;6151888.0;6194524.0
09:43:03.782;6155457.0;6197663.0
09:43:03.822;6150747.0;6191123.0
09:43:03.862;6151608.0;6193411.0
09:43:03.902;6152459.0;6195011.0
09:43:03.942;6152598.0;6194773.0
09:43:03.982;6152304.0;6195092.0
09:43:04.022;6151655.0;6195680.0
09:43:04.062;6153204.0;6197342.0
09:43:04.102;6152501.0;6194968.0
09:43:04.142;6151688.0;6193734.0
09:43:04.182;6151167.0;6193837.0
09:43:04.222;6155808.0;6198127.0
09:43:04.262;6150198.0;6191450.0
09:43:04.302;6151857.0;6193887.0
09:43:04.342;6151239.0;6193572.0
09:43:04.674;6151491.0;6194907.0
09:43:04.714;6151692.0;6194062.0
09:43:04.754;6151758.0;6195088.0
09:43:04.794;6151488.0;6194354.0
09:43:04.834;6151789.0;6194178.0
09:43:04.874;6151623.0;6194050.0
09:43:04.914;6151669.0;6194128.0
09:43:04.954;6151757.0;6195138.0
09:43:04.994;6151939.0;6194843.0
09:43:05.034;6151446.0;6194085.0
09:43:05.074;6154346.0;6195134.0
09:43:05.114;6148786.0;6189371.0
09:43:05.154;6151668.0;6194927.0
09:43:05.194;6151449.0;6194379.0
09:43:05.234;6151509.0;6194487.0
09:43:05.274;6151839.0;6195937.0
09:43:05.314;6152244.0;6196112.0
09:43:05.354;6152501.0;6195808.0
09:43:05.394;6152008.0;6194628.0
09:43:05.434;6151422.0;6194942.0
09:43:05.474;6151656.0;6194681.0
09:43:05.514;6151628.0;6193878.0
09:43:05.554;6151543.0;6194207.0
09:43:05.594;6153185.0;6195813.0
09:43:05.634;6151721.0;6195462.0
09:43:05.674;6151293.0;6194333.0
09:43:05.714;6151018.0;6193736.0
09:43:05.754;6150830.0;6193259.0
09:43:05.794;6151840.0;6195242.0
09:43:05.834;6151272.0;6194449.0
09:43:05.874;6151170.0;6193453.0
09:43:05.914;6154123.0;6195243.0
09:43:05.954;6149915.0;6190227.0
09:43:05.994;6151552.0;6195261.0
09:43:06.034;6151728.0;6194626.0
09:43:06.074;6151582.0;6193961.0
09:43:06.114;6151625.0;6194392.0
09:43:06.154;6151970.0;6196590.0
09:43:06.194;6152598.0;6195962.0
09:43:06.234;6152327.0;6194179.0
09:43:06.274;6152183.0;6194200.0
09:43:06.314;6151610.0;6194958.0
09:43:06.354;6151640.0;6194696.0
09:43:06.394;6151771.0;6193789.0
09:43:06.434;6151700.0;6193600.0
09:43:06.474;6151546.0;6195078.0
09:43:06.514;6154656.0;6201204.0
09:43:06.554;6151865.0;6193713.0
09:43:06.594;6152128.0;6194147.0
09:43:06.634;6148944.0;6188222.0
09:43:06.674;6151527.0;6194934.0
09:43:06.714;6151963.0;6194692.0
09:43:06.754;6151743.0;6194051.0
09:43:06.794;6151381.0;6194025.0
09:43:06.834;6151715.0;6195831.0
09:43:06.874;6152603.0;6196764.0
09:43:06.914;6152963.0;6195418.0
09:43:06.954;6151694.0;6193991.0
09:43:06.994;6152555.0;6195003.0
09:43:07.034;6151741.0;6194994.0
09:43:07.074;6154817.0;6196204.0
09:43:07.114;6149278.0;6189743.0
09:43:07.154;6151450.0;6193700.0
09:43:07.194;6151680.0;6195157.0
09:43:07.234;6152046.0;6194818.0
09:43:07.274;6152516.0;6194957.0
09:43:07.314;6152078.0;6195606.0
09:43:07.354;6152827.0;6196749.0
09:43:07.394;6152258.0;6195586.0
09:43:07.434;6151852.0;6194398.0
09:43:07.474;6151357.0;6193822.0
09:43:07.514;6153926.0;6196070.0
09:43:07.554;6149009.0;6188277.0
09:43:07.594;6151562.0;6194084.0
09:43:07.634;6151869.0;6194598.0
09:43:07.674;6152396.0;6195541.0
09:43:07.714;6152041.0;6195707.0
09:43:07.754;6152303.0;6196189.0
09:43:07.794;6153217.0;6197001.0
09:43:07.834;6152159.0;6195873.0
09:43:07.874;6151683.0;6194786.0
09:43:07.914;6151813.0;6193950.0
09:43:07.954;6155801.0;6197003.0
09:43:07.994;6150262.0;6191305.0
09:43:08.034;6152065.0;6195420.0
09:43:08.074;6151941.0;6195123.0
09:43:08.114;6152106.0;6195500.0
09:43:08.154;6151953.0;6195275.0
09:43:08.194;6154108.0;6198056.0
09:43:08.234;6152693.0;6195996.0
09:43:08.274;6152003.0;6194717.0
09:43:08.314;6151762.0;6193589.0
09:43:08.354;6153575.0;6196517.0
09:43:08.394;6149092.0;6190100.0
09:43:08.434;6152543.0;6195507.0
09:43:08.474;6152061.0;6194323.0
09:43:08.514;6152370.0;6194748.0
09:43:08.554;6152185.0;6196140.0
09:43:08.594;6153202.0;6196889.0
09:43:08.634;6153042.0;6195872.0
09:43:08.976;6153033.0;6195296.0
09:43:09.016;6153893.0;6195587.0
09:43:09.056;6148895.0;6187631.0
09:43:09.096;6151346.0;6193985.0
09:43:09.136;6153217.0;6195566.0
09:43:09.176;6152546.0;6195481.0
09:43:09.216;6152104.0;6195185.0
09:43:09.256;6152400.0;6195903.0
09:43:09.296;6153914.0;6197247.0
09:43:09.336;6152715.0;6195299.0
09:43:09.376;6151819.0;6194212.0
09:43:09.416;6152182.0;6194890.0
09:43:09.456;6154078.0;6196301.0
09:43:09.496;6149710.0;6189126.0
09:43:09.536;6152158.0;6194232.0
09:43:09.576;6152219.0;6195117.0
09:43:09.616;6151849.0;6195359.0
09:43:09.656;6152235.0;6195079.0
09:43:09.696;6152483.0;6195716.0
09:43:09.736;6152531.0;6195209.0
09:43:09.776;6153472.0;6195559.0
09:43:09.816;6152485.0;6195149.0
09:43:09.856;6152397.0;6194761.0
09:43:09.896;6154487.0;6195447.0
09:43:09.936;6149397.0;6188297.0
09:43:09.976;6151982.0;6195154.0
09:43:10.016;6152055.0;6194385.0
09:43:10.056;6151922.0;6194011.0
09:43:10.096;6152274.0;6194918.0
09:43:10.136;6152997.0;6195568.0
09:43:10.176;6153505.0;6196565.0
09:43:10.216;6152677.0;6195129.0
09:43:10.256;6152260.0;6194129.0
09:43:10.296;6151905.0;6193719.0
09:43:10.336;6153640.0;6195379.0
09:43:10.376;6152646.0;6194829.0
09:43:10.416;6152638.0;6194646.0
09:43:10.456;6151879.0;6193571.0
09:43:10.496;6152434.0;6194287.0
09:43:10.536;6152418.0;6194547.0
09:43:10.576;6152323.0;6194682.0
09:43:10.616;6151976.0;6193533.0
09:43:10.656;6151882.0;6193365.0
09:43:10.696;6152298.0;6194965.0
09:43:10.736;6152343.0;6194283.0
09:43:10.776;6152146.0;6193889.0
09:43:10.816;6151898.0;6193827.0
09:43:10.856;6152922.0;6195138.0
09:43:10.896;6152174.0;6195048.0
09:43:10.936;6152270.0;6195451.0
09:43:10.976;6148199.0;6186513.0
09:43:11.016;6151554.0;6193297.0
09:43:11.056;6153667.0;6195702.0
09:43:11.096;6152030.0;6195329.0
09:43:11.136;6152092.0;6194876.0
09:43:11.176;6151866.0;6194387.0
09:43:11.216;6152676.0;6194750.0
09:43:11.256;6153290.0;6196678.0
09:43:11.296;6152598.0;6195266.0
09:43:11.336;6151970.0;6193690.0
09:43:11.376;6151714.0;6194297.0
09:43:11.416;6152209.0;6196019.0
09:43:11.456;6152539.0;6195354.0
09:43:11.496;6152122.0;6194650.0
09:43:11.536;6151821.0;6194438.0
09:43:11.576;6152932.0;6196123.0
09:43:11.616;6154053.0;6194257.0
09:43:11.656;6151309.0;6192974.0
09:43:11.696;6152041.0;6194266.0
09:43:11.736;6152104.0;6194508.0
09:43:11.776;6152265.0;6196565.0
09:43:11.816;6152661.0;6196299.0
09:43:11.856;6152944.0;6196258.0
09:43:11.896;6153020.0;6196269.0
09:43:11.936;6152524.0;6196488.0
09:43:11.976;6152468.0;6195470.0
09:43:12.016;6152593.0;6194840.0
09:43:12.056;6152217.0;6194479.0
09:43:12.096;6152708.0;6195298.0
09:43:12.136;6152041.0;6195807.0
09:43:12.176;6152116.0;6195139.0
09:43:12.216;6152212.0;6194343.0
09:43:12.256;6151754.0;6194024.0
09:43:12.296;6153745.0;6196976.0
09:43:12.336;6148619.0;6188142.0
09:43:12.376;6152402.0;6194832.0
09:43:12.416;6151923.0;6194604.0
09:43:12.456;6151947.0;6194853.0
09:43:12.496;6152388.0;6196337.0
09:43:12.536;6153044.0;6196814.0
09:43:12.576;6153213.0;6196774.0
09:43:12.616;6153364.0;6196205.0
09:43:12.656;6152523.0;6195981.0
09:43:12.696;6152369.0;6195634.0
09:43:12.736;6152437.0;6195169.0
09:43:12.776;6152134.0;6194367.0
09:43:12.816;6152711.0;6196075.0
09:43:12.856;6149823.0;6187505.0
09:43:12.896;6152206.0;6194966.0
09:43:12.936;6152520.0;6194715.0
09:43:13.274;6152082.0;6196102.0
09:43:13.314;6152072.0;6195552.0
09:43:13.354;6152255.0;6194754.0
09:43:13.394;6151952.0;6195435.0
09:43:13.434;6152287.0;6195475.0
09:43:13.474;6152081.0;6194834.0
09:43:13.514;6151861.0;6194272.0
09:43:13.554;6153198.0;6195358.0
09:43:13.594;6154830.0;6196807.0
09:43:13.634;6149412.0;6189671.0
09:43:13.674;6152037.0;6194452.0
09:43:13.714;6151926.0;6194284.0
09:43:13.754;6152147.0;6195714.0
09:43:13.794;6152257.0;6195738.0
09:43:13.834;6152810.0;6196013.0
09:43:13.874;6153065.0;6195829.0
09:43:13.914;6153224.0;6195816.0
09:43:13.954;6152246.0;6195343.0
09:43:13.994;6152151.0;6194041.0
09:43:14.034;6152282.0;6193946.0
09:43:14.074;6152186.0;6194617.0
09:43:14.114;6152015.0;6195937.0
09:43:14.154;6154107.0;6195328.0
09:43:14.194;6149429.0;6187801.0
09:43:14.234;6151903.0;6193868.0
09:43:14.274;6152389.0;6195191.0
09:43:14.314;6152278.0;6196101.0
09:43:14.354;6152426.0;6195633.0
09:43:14.394;6152636.0;6196069.0
09:43:14.434;6152828.0;6196830.0
09:43:14.474;6152709.0;6196697.0
09:43:14.514;6152312.0;6195268.0
09:43:14.554;6152402.0;6194936.0
09:43:14.594;6151871.0;6194142.0
09:43:14.634;6155194.0;6197620.0
09:43:14.674;6149967.0;6191297.0
09:43:14.714;6152305.0;6195223.0
09:43:14.754;6152043.0;6194905.0
09:43:14.794;6152162.0;6194696.0
09:43:14.834;6152615.0;6196665.0
09:43:14.874;6152916.0;6197519.0
09:43:14.914;6153396.0;6196939.0
09:43:14.954;6152517.0;6195256.0
09:43:14.994;6152754.0;6195708.0
09:43:15.034;6152605.0;6195969.0
09:43:15.074;6152742.0;6195838.0
09:43:15.114;6152479.0;6195298.0
09:43:15.154;6152311.0;6194863.0
09:43:15.194;6152916.0;6196518.0
09:43:15.234;6152868.0;6195995.0
09:43:15.274;6152395.0;6194967.0
09:43:15.314;6152053.0;6194482.0
09:43:15.354;6152156.0;6194723.0
09:43:15.394;6153930.0;6196704.0
09:43:15.434;6149738.0;6188196.0
09:43:15.474;6152525.0;6194854.0
09:43:15.514;6152679.0;6194964.0
09:43:15.554;6152334.0;6194938.0
09:43:15.594;6154416.0;6197572.0
09:43:15.634;6153036.0;6197205.0
09:43:15.674;6153542.0;6196868.0
09:43:15.714;6153184.0;6195425.0
09:43:15.754;6152569.0;6195353.0
09:43:15.794;6152835.0;6196519.0
09:43:15.834;6153160.0;6195743.0
09:43:15.874;6152815.0;6195364.0
09:43:15.914;6152700.0;6195181.0
09:43:15.954;6152672.0;6196268.0
09:43:15.994;6152878.0;6197145.0
09:43:16.034;6149692.0;6188735.0
09:43:16.074;6152551.0;6195010.0
09:43:16.114;6153489.0;6196365.0
09:43:16.154;6152899.0;6196493.0
09:43:16.194;6152678.0;6196189.0
09:43:16.234;6153092.0;6196471.0
09:43:16.274;6153867.0;6197526.0
09:43:16.314;6153618.0;6197877.0
09:43:16.354;6152867.0;6195809.0
09:43:16.394;6152837.0;6195212.0
09:43:16.434;6152588.0;6195255.0
09:43:16.474;6152966.0;6193334.0
09:43:16.514;6152230.0;6194877.0
09:43:16.554;6152820.0;6195740.0
09:43:16.594;6153070.0;6195443.0
09:43:16.634;6152821.0;6195481.0
09:43:16.674;6154021.0;6197338.0
09:43:16.714;6153810.0;6198042.0
09:43:16.754;6153861.0;6196906.0
09:43:16.794;6152589.0;6194811.0
09:43:16.834;6152298.0;6194512.0
09:43:16.874;6154668.0;6195907.0
09:43:16.914;6151154.0;6191951.0
09:43:16.954;6153196.0;6196187.0
09:43:16.994;6152674.0;6195037.0
09:43:17.034;6152772.0;6195476.0
09:43:17.074;6154109.0;6197716.0
09:43:17.114;6153500.0;6197623.0
09:43:17.154;6153966.0;6196969.0
09:43:17.194;6153364.0;6195618.0
09:43:17.234;6153676.0;6195845.0
09:43:18.596;6153056.0;6196328.0
09:43:18.636;6153178.0;6195831.0
09:43:18.676;6153094.0;6196036.0
09:43:18.716;6152701.0;6195378.0
09:43:18.756;6153360.0;6196635.0
09:43:18.796;6152719.0;6198003.0
09:43:18.836;6153392.0;6197826.0
09:43:18.876;6153581.0;6195811.0
09:43:18.916;6153009.0;6195341.0
09:43:18.956;6153297.0;6196377.0
09:43:18.996;6153223.0;6196095.0
09:43:19.036;6153150.0;6195885.0
09:43:19.076;6152762.0;6195456.0
09:43:19.116;6153205.0;6196255.0
09:43:19.156;6152909.0;6195851.0
09:43:19.196;6154839.0;6195414.0
09:43:19.236;6151329.0;6189190.0
09:43:19.276;6153567.0;6196399.0
09:43:19.316;6153194.0;6195885.0
09:43:19.356;6152986.0;6195806.0
09:43:19.396;6153209.0;6196009.0
09:43:19.436;6154684.0;6197713.0
09:43:19.476;6154257.0;6197804.0
09:43:19.516;6153700.0;6196408.0
09:43:19.556;6153037.0;6195637.0
09:43:19.596;6152773.0;6195168.0
09:43:19.636;6154904.0;6197268.0
09:43:19.676;6153072.0;6196145.0
09:43:19.716;6152955.0;6195931.0
09:43:19.756;6152574.0;6195344.0
09:43:19.796;6153367.0;6196325.0
09:43:19.836;6155369.0;6196908.0
09:43:19.876;6150292.0;6188587.0
09:43:19.916;6152816.0;6195130.0
09:43:19.956;6153018.0;6195394.0
09:43:19.996;6153887.0;6197721.0
09:43:20.036;6153552.0;6196955.0
09:43:20.076;6153752.0;6196987.0
09:43:20.116;6154328.0;6197678.0
09:43:20.156;6154809.0;6198428.0
09:43:20.196;6153635.0;6196601.0
09:43:20.236;6153495.0;6195727.0
09:43:20.276;6153517.0;6195479.0
09:43:20.316;6154119.0;6196938.0
09:43:20.356;6153439.0;6196910.0
09:43:20.396;6153649.0;6196182.0
09:43:20.436;6153862.0;6196335.0
09:43:20.476;6153490.0;6196569.0
09:43:20.516;6153260.0;6196275.0
09:43:20.556;6153493.0;6196289.0
09:43:20.596;6153433.0;6195821.0
09:43:20.636;6154847.0;6197440.0
09:43:20.676;6154868.0;6197228.0
09:43:20.716;6150042.0;6189344.0
09:43:20.756;6153374.0;6195858.0
09:43:20.796;6154025.0;6196444.0
09:43:20.836;6153376.0;6196933.0
09:43:20.876;6153632.0;6196860.0
09:43:20.916;6154622.0;6197421.0
09:43:20.956;6154559.0;6197545.0
09:43:20.996;6154252.0;6197265.0
09:43:21.036;6153676.0;6196235.0
09:43:21.076;6153498.0;6196143.0
09:43:21.116;6153551.0;6196011.0
09:43:21.156;6153352.0;6196224.0
09:43:21.196;6157221.0;6197153.0
09:43:21.236;6151395.0;6192593.0
09:43:21.276;6153835.0;6196191.0
09:43:21.316;6153652.0;6195813.0
09:43:21.356;6152751.0;6196216.0
09:43:21.396;6153981.0;6197920.0
09:43:21.436;6154736.0;6198491.0
09:43:21.476;6154256.0;6198134.0
09:43:21.516;6153346.0;6196804.0
09:43:21.556;6154072.0;6196771.0
09:43:21.596;6153575.0;6195901.0
09:43:21.636;6153129.0;6195730.0
09:43:21.676;6153334.0;6196169.0
09:43:21.716;6153884.0;6196214.0
09:43:21.756;6153334.0;6195287.0
09:43:21.796;6157127.0;6193565.0
09:43:21.836;6158694.0;6187647.0
09:43:21.876;6153405.0;6196207.0
09:43:21.916;6152040.0;6195751.0
09:43:21.956;6152154.0;6196166.0
09:43:21.996;6151556.0;6197331.0
09:43:22.036;6151554.0;6199363.0
09:43:22.076;6150612.0;6198810.0
09:43:22.116;6152828.0;6196288.0
09:43:22.156;6153458.0;6195537.0
09:43:22.196;6154345.0;6196538.0
09:43:22.236;6152871.0;6195515.0
09:43:22.276;6152982.0;6195666.0
09:43:22.316;6153441.0;6195575.0
09:43:22.356;6154269.0;6196494.0
09:43:22.396;6150936.0;6189965.0
09:43:22.436;6153013.0;6194340.0
09:43:22.476;6153307.0;6195539.0
09:43:22.516;6153864.0;6195606.0
09:43:22.556;6153591.0;6196272.0
09:43:24.128;6153797.0;6196346.0
09:43:24.168;6153864.0;6196518.0
09:43:24.208;6153687.0;6195875.0
09:43:24.248;6153927.0;6196105.0
09:43:24.288;6154171.0;6197055.0
09:43:24.328;6154355.0;6196531.0
09:43:24.368;6153464.0;6194737.0
09:43:24.408;6153677.0;6194799.0
09:43:24.448;6153845.0;6195796.0
09:43:24.488;6154181.0;6195912.0
09:43:24.528;6153367.0;6194529.0
09:43:24.568;6153415.0;6194222.0
09:43:24.608;6154619.0;6196042.0
09:43:24.648;6150694.0;6188693.0
09:43:24.688;6153401.0;6194671.0
09:43:24.728;6153400.0;6194166.0
09:43:24.768;6154578.0;6195274.0
09:43:24.808;6153946.0;6195844.0
09:43:24.848;6153803.0;6196152.0
09:43:24.888;6154099.0;6195841.0
09:43:24.928;6154824.0;6195318.0
09:43:24.968;6154072.0;6195510.0
09:43:25.008;6153561.0;6194553.0
09:43:25.048;6153752.0;6194935.0
09:43:25.088;6151021.0;6187813.0
09:43:25.128;6153435.0;6194877.0
09:43:25.168;6153134.0;6194447.0
09:43:25.208;6153173.0;6194316.0
09:43:25.248;6153949.0;6194981.0
09:43:25.288;6154252.0;6197055.0
09:43:25.328;6154473.0;6196213.0
09:43:25.368;6153546.0;6194605.0
09:43:25.408;6153855.0;6194669.0
09:43:25.448;6153442.0;6195481.0
09:43:25.488;6153587.0;6195075.0
09:43:25.528;6153453.0;6194515.0
09:43:25.568;6153662.0;6194800.0
09:43:25.608;6153312.0;6195507.0
09:43:25.648;6153091.0;6195028.0
09:43:25.688;6153103.0;6194436.0
09:43:25.728;6152630.0;6194393.0
09:43:25.768;6152981.0;6195406.0
09:43:25.808;6156504.0;6197488.0
09:43:25.848;6150169.0;6188700.0
09:43:25.888;6152721.0;6194268.0
09:43:25.928;6152910.0;6195554.0
09:43:25.968;6152953.0;6195618.0
09:43:26.008;6153668.0;6196030.0
09:43:26.048;6153996.0;6196552.0
09:43:26.088;6154105.0;6197070.0
09:43:26.128;6153686.0;6195757.0
09:43:26.168;6153484.0;6195440.0
09:43:26.208;6153351.0;6194840.0
09:43:26.248;6152955.0;6195418.0
09:43:26.288;6153443.0;6195764.0
09:43:26.328;6153293.0;6195200.0
09:43:26.368;6153897.0;6194919.0
09:43:26.408;6153105.0;6195454.0
09:43:26.448;6153289.0;6195637.0
09:43:26.488;6152869.0;6194581.0
09:43:26.528;6153516.0;6195267.0
09:43:26.568;6155943.0;6196402.0
09:43:26.608;6150903.0;6189456.0
09:43:26.648;6153284.0;6194523.0
09:43:26.688;6154155.0;6195316.0
09:43:26.728;6153484.0;6195786.0
09:43:26.768;6153614.0;6196338.0
09:43:26.808;6153700.0;6196246.0
09:43:26.848;6155429.0;6197094.0
09:43:26.888;6154430.0;6196078.0
09:43:26.928;6153434.0;6195488.0
09:43:26.968;6153313.0;6194953.0
09:43:27.008;6154075.0;6194825.0
09:43:27.048;6153924.0;6195822.0
09:43:27.088;6153608.0;6195331.0
09:43:27.128;6153267.0;6195615.0
09:43:27.168;6151073.0;6188306.0
09:43:27.208;6153946.0;6195369.0
09:43:27.248;6153778.0;6195486.0
09:43:27.288;6153672.0;6194688.0
09:43:27.328;6153972.0;6195124.0
09:43:27.368;6154593.0;6197280.0
09:43:27.408;6154800.0;6197230.0
09:43:27.448;6154881.0;6196454.0
09:43:27.488;6153794.0;6195039.0
09:43:27.528;6153995.0;6195657.0
09:43:27.568;6153815.0;6195024.0
09:43:27.608;6153896.0;6194811.0
09:43:27.648;6153946.0;6195458.0
09:43:27.688;6153705.0;6195602.0
09:43:27.728;6153317.0;6194454.0
09:43:27.768;6153514.0;6194097.0
09:43:27.808;6153988.0;6194978.0
09:43:27.848;6153823.0;6195142.0
09:43:27.888;6153219.0;6194284.0
09:43:27.928;6153451.0;6191787.0
09:43:27.968;6153159.0;6193223.0
09:43:28.008;6153846.0;6194731.0
09:43:28.048;6153948.0;6194673.0
09:43:28.088;6152865.0;6194545.0
09:43:28.068;6153945.0;6195771.0
09:43:28.108;6153341.0;6194352.0
09:43:28.148;6153303.0;6194138.0
09:43:28.188;6153384.0;6195134.0
09:43:28.228;6154001.0;6195385.0
09:43:28.268;6153697.0;6194636.0
09:43:28.308;6153346.0;6193699.0
09:43:28.348;6153412.0;6194592.0
09:43:28.388;6156550.0;6196309.0
09:43:28.428;6150728.0;6188500.0
09:43:28.468;6153524.0;6193959.0
09:43:28.508;6154002.0;6194788.0
09:43:28.548;6153458.0;6195280.0
09:43:28.588;6153640.0;6195115.0
09:43:28.628;6153822.0;6195214.0
09:43:28.668;6155218.0;6197207.0
09:43:28.708;6154456.0;6195801.0
09:43:28.748;6153765.0;6194401.0
09:43:28.788;6153502.0;6193762.0
09:43:28.828;6153161.0;6194625.0
09:43:28.868;6153657.0;6194840.0
09:43:28.908;6153557.0;6193958.0
09:43:28.948;6153757.0;6194486.0
09:43:28.988;6153467.0;6194778.0
09:43:29.028;6153372.0;6195420.0
09:43:29.068;6149623.0;6186965.0
09:43:29.108;6154342.0;6194983.0
09:43:29.148;6153877.0;6195012.0
09:43:29.188;6153830.0;6194885.0
09:43:29.228;6153524.0;6194231.0
09:43:29.268;6154832.0;6195648.0
09:43:29.308;6154917.0;6197084.0
09:43:29.348;6154369.0;6195891.0
09:43:29.388;6153383.0;6194110.0
09:43:29.428;6154016.0;6194407.0
09:43:29.468;6153788.0;6195215.0
09:43:29.508;6153510.0;6194423.0
09:43:29.548;6153589.0;6194106.0
09:43:29.588;6153872.0;6194296.0
09:43:29.628;6153585.0;6195068.0
09:43:29.668;6153593.0;6194737.0
09:43:29.708;6153876.0;6194801.0
09:43:29.748;6150067.0;6186382.0
09:43:29.788;6154163.0;6194722.0
09:43:29.828;6153797.0;6194675.0
09:43:29.868;6153264.0;6194199.0
09:43:29.908;6153348.0;6193447.0
09:43:29.948;6154695.0;6195231.0
09:43:29.988;6154457.0;6196636.0
09:43:30.028;6154408.0;6195294.0
09:43:30.068;6153484.0;6193569.0
09:43:30.108;6153708.0;6193794.0
09:43:30.148;6153757.0;6194664.0
09:43:30.188;6153773.0;6193877.0
09:43:30.228;6153853.0;6193681.0
09:43:30.268;6153969.0;6194252.0
09:43:30.308;6153806.0;6194816.0
09:43:30.348;6154065.0;6193867.0
09:43:30.388;6153940.0;6193452.0
09:43:30.428;6154393.0;6194185.0
09:43:30.468;6153730.0;6194553.0
09:43:30.508;6153733.0;6193890.0
09:43:30.548;6153686.0;6193279.0
09:43:30.588;6154363.0;6194291.0
09:43:30.628;6153663.0;6194021.0
09:43:30.668;6153359.0;6193899.0
09:43:30.708;6153089.0;6193182.0
09:43:30.748;6154049.0;6193744.0
09:43:30.788;6153858.0;6194480.0
09:43:30.828;6156048.0;6195601.0
09:43:30.868;6151892.0;6190018.0
09:43:30.908;6153765.0;6193041.0
09:43:30.948;6153674.0;6194635.0
09:43:30.988;6153841.0;6194451.0
09:43:31.028;6153850.0;6194628.0
09:43:31.068;6153950.0;6194878.0
09:43:31.108;6154729.0;6195292.0
09:43:31.148;6154315.0;6194930.0
09:43:31.188;6153611.0;6193668.0
09:43:31.228;6153220.0;6193537.0
09:43:31.268;6153751.0;6193929.0
09:43:31.308;6153902.0;6194966.0
09:43:31.348;6153725.0;6194851.0
09:43:31.388;6154708.0;6194110.0
09:43:31.428;6150741.0;6185387.0
09:43:31.468;6153935.0;6194938.0
09:43:31.508;6153943.0;6194688.0
09:43:31.548;6153860.0;6194205.0
09:43:31.588;6153719.0;6194224.0
09:43:31.628;6154504.0;6196647.0
09:43:31.668;6155373.0;6197420.0
09:43:31.708;6154972.0;6195934.0
09:43:31.748;6153919.0;6194340.0
09:43:31.788;6153834.0;6195267.0
09:43:31.828;6154028.0;6194348.0
09:43:31.868;6153486.0;6193708.0
09:43:31.908;6153373.0;6193561.0
09:43:31.948;6155344.0;6196390.0
09:43:31.988;6153678.0;6194842.0
09:43:32.028;6153890.0;6194300.0
09:43:31.709;6153706.0;6194068.0
09:43:31.749;6153543.0;6194794.0
09:43:31.789;6153646.0;6194100.0
09:43:31.829;6154945.0;6195432.0
09:43:31.869;6153887.0;6195732.0
09:43:31.909;6153857.0;6195742.0
09:43:31.949;6155336.0;6196224.0
09:43:31.989;6154983.0;6195898.0
09:43:32.029;6153467.0;6194321.0
09:43:32.069;6153226.0;6193947.0
09:43:32.109;6154978.0;6195667.0
09:43:32.149;6153777.0;6194855.0
09:43:32.189;6153314.0;6193784.0
09:43:32.229;6153709.0;6194399.0
09:43:32.269;6155050.0;6195537.0
09:43:32.309;6154133.0;6195384.0
09:43:32.349;6149916.0;6186874.0
09:43:32.389;6153427.0;6193721.0
09:43:32.429;6155173.0;6196232.0
09:43:32.469;6153741.0;6195291.0
09:43:32.509;6153487.0;6194638.0
09:43:32.549;6153806.0;6194753.0
09:43:32.589;6155190.0;6198045.0
09:43:32.629;6155326.0;6196712.0
09:43:32.669;6154112.0;6194760.0
09:43:32.709;6153900.0;6193887.0
09:43:32.749;6153664.0;6195156.0
09:43:32.789;6153499.0;6194354.0
09:43:32.829;6153907.0;6194302.0
09:43:32.869;6154009.0;6194079.0
09:43:32.909;6153538.0;6194284.0
09:43:32.949;6155695.0;6195480.0
09:43:32.989;6151439.0;6188237.0
09:43:33.029;6153975.0;6193984.0
09:43:33.069;6153546.0;6193821.0
09:43:33.109;6154589.0;6195365.0
09:43:33.149;6154097.0;6195255.0
09:43:33.189;6154238.0;6195773.0
09:43:33.229;6154674.0;6195925.0
09:43:33.269;6154764.0;6194954.0
09:43:33.309;6154348.0;6194939.0
09:43:33.349;6153849.0;6194014.0
09:43:33.389;6153690.0;6193458.0
09:43:33.429;6154105.0;6193534.0
09:43:33.469;6154287.0;6195524.0
09:43:33.509;6153919.0;6194345.0
09:43:33.549;6153778.0;6193728.0
09:43:33.589;6153678.0;6193434.0
09:43:33.629;6153990.0;6194929.0
09:43:33.669;6153989.0;6194529.0
09:43:33.709;6153970.0;6193828.0
09:43:33.749;6156447.0;6194374.0
09:43:33.789;6150786.0;6189048.0
09:43:33.829;6153922.0;6194735.0
09:43:33.869;6153949.0;6194148.0
09:43:33.909;6153948.0;6193897.0
09:43:33.949;6154760.0;6195676.0
09:43:33.989;6154591.0;6196250.0
09:43:34.029;6154793.0;6195991.0
09:43:34.069;6154618.0;6194688.0
09:43:34.109;6154571.0;6194680.0
09:43:34.149;6154030.0;6194649.0
09:43:34.189;6153649.0;6194134.0
09:43:34.229;6156659.0;6193556.0
09:43:34.269;6152447.0;6189780.0
09:43:34.309;6153943.0;6194873.0
09:43:34.349;6154186.0;6194910.0
09:43:34.389;6153915.0;6194292.0
09:43:34.429;6154876.0;6196280.0
09:43:34.469;6154025.0;6197190.0
09:43:34.509;6154405.0;6197290.0
09:43:34.549;6154823.0;6195519.0
09:43:34.589;6154602.0;6195116.0
09:43:34.629;6153599.0;6194207.0
09:43:34.669;6154400.0;6194336.0
09:43:34.709;6152531.0;6189047.0
09:43:34.749;6154263.0;6194999.0
09:43:34.789;6153597.0;6194474.0
09:43:34.829;6153597.0;6194039.0
09:43:34.869;6155390.0;6195569.0
09:43:34.909;6155058.0;6196132.0
09:43:34.949;6154900.0;6195838.0
09:43:34.989;6154654.0;6194927.0
09:43:35.029;6154789.0;6194484.0
09:43:35.069;6154520.0;6194884.0
09:43:35.109;6154652.0;6195139.0
09:43:35.149;6154369.0;6194654.0
09:43:35.189;6154358.0;6193906.0
09:43:35.229;6154364.0;6195110.0
09:43:35.269;6154772.0;6194863.0
09:43:35.309;6154396.0;6194132.0
09:43:35.349;6156894.0;6195159.0
09:43:35.389;6151916.0;6190063.0
09:43:35.429;6154207.0;6194636.0
09:43:35.469;6154186.0;6194556.0
09:43:35.509;6154210.0;6194052.0
09:43:35.549;6154669.0;6195706.0
09:43:35.589;6155065.0;6196246.0
09:43:35.629;6155201.0;6196090.0
09:43:35.669;6155082.0;6194420.0
09:43:40.108;6154428.0;6194863.0
09:43:40.148;6153947.0;6194287.0
09:43:40.188;6154369.0;6195144.0
09:43:40.228;6152849.0;6189457.0
09:43:40.268;6153798.0;6192518.0
09:43:40.308;6154004.0;6194883.0
09:43:40.348;6154139.0;6194468.0
09:43:40.388;6154825.0;6194703.0
09:43:40.428;6155044.0;6195271.0
09:43:40.468;6154558.0;6196319.0
09:43:40.508;6155168.0;6195972.0
09:43:40.548;6154836.0;6194661.0
09:43:40.588;6154603.0;6194085.0
09:43:40.628;6153718.0;6194013.0
09:43:40.668;6154400.0;6194322.0
09:43:40.708;6156529.0;6194662.0
09:43:40.748;6150774.0;6186716.0
09:43:40.788;6153819.0;6194150.0
09:43:40.828;6154346.0;6194500.0
09:43:40.868;6154488.0;6194751.0
09:43:40.908;6153910.0;6194523.0
09:43:40.948;6155045.0;6196393.0
09:43:40.988;6155271.0;6196428.0
09:43:41.028;6154873.0;6195088.0
09:43:41.068;6153752.0;6194337.0
09:43:41.108;6154153.0;6194661.0
09:43:41.148;6154355.0;6194383.0
09:43:41.188;6154238.0;6194517.0
09:43:41.228;6154542.0;6195085.0
09:43:41.268;6154577.0;6195159.0
09:43:41.308;6154687.0;6194485.0
09:43:41.348;6154497.0;6194602.0
09:43:41.388;6154801.0;6194953.0
09:43:41.428;6154636.0;6194801.0
09:43:41.468;6154085.0;6194142.0
09:43:41.508;6154503.0;6194257.0
09:43:41.548;6155156.0;6194839.0
09:43:41.588;6157574.0;6196148.0
09:43:41.628;6151245.0;6188192.0
09:43:41.668;6154833.0;6194388.0
09:43:41.708;6155379.0;6195081.0
09:43:41.748;6154515.0;6195371.0
09:43:41.788;6154789.0;6195204.0
09:43:41.828;6155540.0;6196046.0
09:43:41.868;6155457.0;6196032.0
09:43:41.908;6155810.0;6195571.0
09:43:41.948;6155132.0;6194794.0
09:43:41.988;6154487.0;6194485.0
09:43:42.028;6154588.0;6194450.0
09:43:42.068;6155180.0;6195262.0
09:43:42.108;6154451.0;6194809.0
09:43:42.148;6154380.0;6194514.0
09:43:42.188;6155484.0;6195373.0
09:43:42.228;6154798.0;6194851.0
09:43:42.268;6154170.0;6194396.0
09:43:42.308;6155151.0;6194342.0
09:43:42.348;6151134.0;6187502.0
09:43:42.388;6154516.0;6195160.0
09:43:42.428;6154402.0;6194536.0
09:43:42.468;6154762.0;6194656.0
09:43:42.508;6154078.0;6194912.0
09:43:42.548;6154918.0;6196221.0
09:43:42.588;6155502.0;6196574.0
09:43:42.628;6155145.0;6195767.0
09:43:42.668;6154478.0;6194567.0
09:43:42.708;6154652.0;6195032.0
09:43:42.748;6154437.0;6194088.0
09:43:42.788;6154090.0;6194629.0
09:43:42.828;6154722.0;6194761.0
09:43:42.868;6154866.0;6194561.0
09:43:42.908;6156747.0;6196451.0
09:43:42.948;6152657.0;6191454.0
09:43:42.988;6154789.0;6194967.0
09:43:43.028;6154886.0;6194641.0
09:43:43.068;6154812.0;6194860.0
09:43:43.108;6154245.0;6194833.0
09:43:43.148;6154804.0;6196126.0
09:43:43.188;6155577.0;6196937.0
09:43:43.228;6154501.0;6194994.0
09:43:43.268;6154101.0;6194577.0
09:43:43.308;6154049.0;6193901.0
09:43:43.348;6153961.0;6193864.0
09:43:43.388;6153893.0;6194700.0
09:43:43.428;6154004.0;6194787.0
09:43:43.468;6154014.0;6194023.0
09:43:43.508;6153400.0;6194027.0
09:43:43.548;6153998.0;6194555.0
09:43:43.588;6153923.0;6194408.0
09:43:43.628;6154135.0;6194321.0
09:43:43.668;6153566.0;6194362.0
09:43:43.708;6156955.0;6196448.0
09:43:43.748;6150884.0;6188677.0
09:43:43.788;6153974.0;6193991.0
09:43:43.828;6153752.0;6194473.0
09:43:43.868;6154340.0;6195162.0
09:43:43.908;6153894.0;6194658.0
09:43:43.948;6153960.0;6195713.0
09:43:43.988;6155482.0;6196744.0
09:43:44.028;6154960.0;6195104.0
09:43:44.068;6153301.0;6193883.0
09:43:44.404;6153747.0;6194559.0
09:43:44.444;6154638.0;6194656.0
09:43:44.484;6158407.0;6192337.0
09:43:44.524;6154489.0;6182166.0
09:43:44.564;6156266.0;6192529.0
09:43:44.604;6154549.0;6195509.0
09:43:44.644;6153163.0;6195145.0
09:43:44.684;6152870.0;6196645.0
09:43:44.724;6153330.0;6200527.0
09:43:44.764;6152183.0;6201099.0
09:43:44.804;6153335.0;6196852.0
09:43:44.844;6155054.0;6194886.0
09:43:44.884;6154027.0;6194571.0
09:43:44.924;6153782.0;6194044.0
09:43:44.964;6154401.0;6194578.0
09:43:45.004;6154667.0;6194781.0
09:43:45.044;6154874.0;6194262.0
09:43:45.084;6150880.0;6186197.0
09:43:45.124;6154904.0;6194050.0
09:43:45.164;6154095.0;6194257.0
09:43:45.204;6154646.0;6193886.0
09:43:45.244;6154664.0;6193970.0
09:43:45.284;6154554.0;6195060.0
09:43:45.324;6155540.0;6195829.0
09:43:45.364;6155590.0;6194911.0
09:43:45.404;6153987.0;6192380.0
09:43:45.444;6154014.0;6193540.0
09:43:45.484;6154707.0;6193964.0
09:43:45.524;6154776.0;6193821.0
09:43:45.564;6153635.0;6193368.0
09:43:45.604;6154401.0;6193951.0
09:43:45.644;6154376.0;6193549.0
09:43:45.684;6154868.0;6193511.0
09:43:45.724;6154055.0;6193836.0
09:43:45.764;6154443.0;6193980.0
09:43:45.804;6154131.0;6193534.0
09:43:45.844;6154362.0;6193292.0
09:43:45.884;6154363.0;6194321.0
09:43:45.924;6150558.0;6186400.0
09:43:45.964;6154600.0;6193791.0
09:43:46.004;6154085.0;6193387.0
09:43:46.044;6154325.0;6194284.0
09:43:46.084;6154308.0;6194439.0
09:43:46.124;6154604.0;6194483.0
09:43:46.164;6154469.0;6195247.0
09:43:46.204;6155507.0;6195670.0
09:43:46.244;6154589.0;6194411.0
09:43:46.284;6153354.0;6193133.0
09:43:46.324;6154138.0;6193724.0
09:43:46.364;6154847.0;6194392.0
09:43:46.404;6153940.0;6193811.0
09:43:46.444;6153788.0;6193741.0
09:43:46.484;6154883.0;6194493.0
09:43:46.524;6151428.0;6186451.0
09:43:46.564;6153609.0;6193754.0
09:43:46.604;6154554.0;6194371.0
09:43:46.644;6155337.0;6194776.0
09:43:46.684;6153877.0;6194390.0
09:43:46.724;6154150.0;6194830.0
09:43:46.764;6155746.0;6196221.0
09:43:46.804;6155294.0;6195616.0
09:43:46.844;6154063.0;6194098.0
09:43:46.884;6154087.0;6193515.0
09:43:46.924;6154771.0;6194108.0
09:43:46.964;6154132.0;6193771.0
09:43:47.004;6154017.0;6193894.0
09:43:47.044;6154830.0;6194423.0
09:43:47.084;6154286.0;6194101.0
09:43:47.124;6154252.0;6193372.0
09:43:47.164;6157114.0;6196234.0
09:43:47.204;6151589.0;6189763.0
09:43:47.244;6154218.0;6193901.0
09:43:47.284;6154796.0;6193985.0
09:43:47.324;6154896.0;6194218.0
09:43:47.364;6153894.0;6194309.0
09:43:47.404;6154656.0;6194983.0
09:43:47.444;6155668.0;6195570.0
09:43:47.484;6154520.0;6194580.0
09:43:47.524;6153822.0;6193479.0
09:43:47.564;6154381.0;6193921.0
09:43:47.604;6153422.0;6193652.0
09:43:47.644;6159875.0;6182567.0
09:43:47.684;6154287.0;6185627.0
09:43:47.724;6154460.0;6192994.0
09:43:47.764;6153867.0;6194643.0
09:43:47.804;6154035.0;6195649.0
09:43:47.844;6152741.0;6196659.0
09:43:47.884;6151906.0;6199399.0
09:43:47.924;6153201.0;6199856.0
09:43:47.964;6154278.0;6195684.0
09:43:48.004;6153501.0;6193351.0
09:43:48.044;6153995.0;6193916.0
09:43:48.084;6154377.0;6193817.0
09:43:48.124;6153916.0;6193460.0
09:43:48.164;6153719.0;6193386.0
09:43:48.204;6154114.0;6193620.0
09:43:48.244;6153999.0;6192977.0
09:43:48.284;6153784.0;6193403.0
09:43:48.324;6153614.0;6193374.0
09:43:48.364;6153077.0;6190373.0
09:43:48.913;6153174.0;6191665.0
09:43:48.953;6154776.0;6194309.0
09:43:48.993;6154483.0;6195231.0
09:43:49.033;6154664.0;6194835.0
09:43:49.073;6153895.0;6193212.0
09:43:49.113;6153160.0;6193077.0
09:43:49.153;6153660.0;6193492.0
09:43:49.193;6153448.0;6193814.0
09:43:49.233;6153993.0;6193666.0
09:43:49.273;6155742.0;6194150.0
09:43:49.313;6152648.0;6191868.0
09:43:49.353;6153839.0;6193773.0
09:43:49.393;6154243.0;6194221.0
09:43:49.433;6153651.0;6194244.0
09:43:49.473;6154074.0;6194946.0
09:43:49.513;6154691.0;6195803.0
09:43:49.553;6154708.0;6195674.0
09:43:49.593;6154180.0;6194390.0
09:43:49.633;6154249.0;6193915.0
09:43:49.673;6153617.0;6193247.0
09:43:49.713;6153713.0;6193461.0
09:43:49.753;6154166.0;6193816.0
09:43:49.793;6154711.0;6194078.0
09:43:49.833;6156664.0;6196087.0
09:43:49.873;6151362.0;6188697.0
09:43:49.913;6154342.0;6193400.0
09:43:49.953;6154049.0;6193565.0
09:43:49.993;6153401.0;6193667.0
09:43:50.033;6154446.0;6194933.0
09:43:50.073;6155399.0;6195368.0
09:43:50.113;6154893.0;6195604.0
09:43:50.153;6153993.0;6194302.0
09:43:50.193;6153978.0;6193691.0
09:43:50.233;6154185.0;6193240.0
09:43:50.273;6153513.0;6193365.0
09:43:50.313;6153780.0;6193726.0
09:43:50.353;6154774.0;6193977.0
09:43:50.393;6153871.0;6191311.0
09:43:50.433;6153262.0;6192316.0
09:43:50.473;6154039.0;6193399.0
09:43:50.513;6154772.0;6193920.0
09:43:50.553;6153722.0;6193798.0
09:43:50.593;6154240.0;6194465.0
09:43:50.633;6155676.0;6195976.0
09:43:50.673;6155115.0;6194951.0
09:43:50.713;6154488.0;6193495.0
09:43:50.753;6154204.0;6193289.0
09:43:50.793;6153946.0;6193624.0
09:43:50.833;6154345.0;6194069.0
09:43:50.873;6154494.0;6193468.0
09:43:50.913;6154753.0;6193768.0
09:43:50.953;6153944.0;6194211.0
09:43:50.993;6151149.0;6186495.0
09:43:51.033;6153972.0;6192562.0
09:43:51.073;6154478.0;6194011.0
09:43:51.113;6154080.0;6193202.0
09:43:51.153;6154246.0;6193543.0
09:43:51.193;6155220.0;6194422.0
09:43:51.233;6154756.0;6195333.0
09:43:51.273;6154914.0;6194467.0
09:43:51.313;6154460.0;6193423.0
09:43:51.353;6155213.0;6193379.0
09:43:51.393;6153849.0;6192877.0
09:43:51.433;6153540.0;6193180.0
09:43:51.473;6154439.0;6193766.0
09:43:51.513;6154818.0;6193593.0
09:43:51.553;6154019.0;6193665.0
09:43:51.593;6154162.0;6193600.0
09:43:51.633;6150093.0;6185164.0
09:43:51.673;6155115.0;6194089.0
09:43:51.713;6154262.0;6194117.0
09:43:51.753;6153911.0;6193861.0
09:43:51.793;6154251.0;6193724.0
09:43:51.833;6155528.0;6195040.0
09:43:51.873;6155312.0;6195720.0
09:43:51.913;6155002.0;6194836.0
09:43:51.953;6154192.0;6193529.0
09:43:51.993;6154255.0;6193268.0
09:43:52.033;6155991.0;6193649.0
09:43:52.073;6154481.0;6193756.0
09:43:52.113;6154574.0;6193465.0
09:43:52.153;6154616.0;6192978.0
09:43:52.193;6155109.0;6192094.0
09:43:52.233;6156216.0;6194144.0
09:43:52.273;6152002.0;6185322.0
09:43:52.313;6155120.0;6191709.0
09:43:52.353;6155172.0;6191212.0
09:43:52.393;6156921.0;6192260.0
09:43:52.433;6156242.0;6193307.0
09:43:52.473;6156445.0;6194497.0
09:43:52.513;6156413.0;6194863.0
09:43:52.553;6156575.0;6194185.0
09:43:52.593;6157150.0;6195595.0
09:43:52.633;6155587.0;6195144.0
09:43:52.673;6154997.0;6194631.0
09:43:52.713;6155041.0;6194240.0
09:43:52.753;6156018.0;6193987.0
09:43:52.793;6158254.0;6196831.0
09:43:52.833;6152283.0;6188687.0
09:43:52.873;6154464.0;6194158.0
09:43:53.214;6154699.0;6193344.0
09:43:53.254;6154100.0;6193701.0
09:43:53.294;6155048.0;6195115.0
09:43:53.334;6154733.0;6194002.0
09:43:53.374;6154503.0;6193284.0
09:43:53.414;6153998.0;6193058.0
09:43:53.454;6154201.0;6193807.0
09:43:53.494;6154673.0;6194754.0
09:43:53.534;6157765.0;6195476.0
09:43:53.574;6152582.0;6189627.0
09:43:53.614;6154467.0;6193534.0
09:43:53.654;6153883.0;6192974.0
09:43:53.694;6156667.0;6195797.0
09:43:53.734;6155662.0;6195080.0
09:43:53.774;6155646.0;6194787.0
09:43:53.814;6155419.0;6194578.0
09:43:53.854;6154865.0;6193924.0
09:43:53.894;6155707.0;6195054.0
09:43:53.934;6155226.0;6193722.0
09:43:53.974;6154614.0;6192908.0
09:43:54.014;6154514.0;6193095.0
09:43:54.054;6155975.0;6195283.0
09:43:54.094;6155255.0;6194487.0
09:43:54.134;6155090.0;6193551.0
09:43:54.174;6155062.0;6194070.0
09:43:54.214;6152208.0;6186892.0
09:43:54.254;6154991.0;6193728.0
09:43:54.294;6155169.0;6194054.0
09:43:54.334;6154891.0;6192894.0
09:43:54.374;6155663.0;6193834.0
09:43:54.414;6155255.0;6194712.0
09:43:54.454;6155725.0;6195724.0
09:43:54.494;6155915.0;6194502.0
09:43:54.534;6155633.0;6193894.0
09:43:54.574;6154824.0;6194066.0
09:43:54.614;6154917.0;6193668.0
09:43:54.654;6154889.0;6192510.0
09:43:54.694;6154327.0;6192317.0
09:43:54.734;6152529.0;6187903.0
09:43:54.774;6154580.0;6193285.0
09:43:54.814;6154774.0;6192573.0
09:43:54.854;6154447.0;6192216.0
09:43:54.894;6154555.0;6192340.0
09:43:54.934;6155399.0;6195460.0
09:43:54.974;6156128.0;6196328.0
09:43:55.014;6155680.0;6196428.0
09:43:55.054;6153645.0;6195340.0
09:43:55.094;6152991.0;6195524.0
09:43:55.134;6152677.0;6194168.0
09:43:55.174;6152171.0;6189654.0
09:43:55.214;6152192.0;6191446.0
09:43:55.254;6153209.0;6193395.0
09:43:55.294;6153050.0;6192843.0
09:43:55.334;6153208.0;6192828.0
09:43:55.374;6153883.0;6192844.0
09:43:55.414;6154206.0;6194725.0
09:43:55.454;6154064.0;6193430.0
09:43:55.494;6153417.0;6192519.0
09:43:55.534;6153697.0;6191964.0
09:43:55.574;6154795.0;6193466.0
09:43:55.614;6154057.0;6193256.0
09:43:55.654;6154114.0;6194194.0
09:43:55.694;6150491.0;6184731.0
09:43:55.734;6153532.0;6191679.0
09:43:55.774;6154515.0;6193317.0
09:43:55.814;6154113.0;6193759.0
09:43:55.854;6154442.0;6193712.0
09:43:55.894;6154795.0;6193890.0
09:43:55.934;6155453.0;6194861.0
09:43:55.974;6155101.0;6195341.0
09:43:56.014;6154275.0;6193570.0
09:43:56.054;6154252.0;6192504.0
09:43:56.094;6154200.0;6192646.0
09:43:56.134;6154047.0;6193809.0
09:43:56.174;6154570.0;6193519.0
09:43:56.214;6154694.0;6193011.0
09:43:56.254;6154334.0;6192742.0
09:43:56.294;6155000.0;6193993.0
09:43:56.334;6154683.0;6193404.0
09:43:56.374;6154581.0;6193124.0
09:43:56.414;6154388.0;6192504.0
09:43:56.454;6154062.0;6191969.0
09:43:56.494;6155240.0;6194025.0
09:43:56.534;6154636.0;6193390.0
09:43:56.574;6154394.0;6193049.0
09:43:56.614;6154224.0;6193349.0
09:43:56.654;6151853.0;6186271.0
09:43:56.694;6154362.0;6192673.0
09:43:56.734;6154239.0;6193329.0
09:43:56.774;6154274.0;6192723.0
09:43:56.814;6154226.0;6192676.0
09:43:56.854;6154820.0;6194617.0
09:43:56.894;6155191.0;6194222.0
09:43:56.934;6155041.0;6193350.0
09:43:56.974;6154667.0;6192680.0
09:43:57.014;6155039.0;6192964.0
09:43:57.054;6154642.0;6193421.0
09:43:57.094;6154372.0;6192644.0
09:43:57.134;6154384.0;6192652.0
09:43:57.174;6154214.0;6189087.0
09:43:57.462;6154733.0;6192160.0
09:43:57.502;6155866.0;6195079.0
09:43:57.542;6154882.0;6192755.0
09:43:57.582;6154495.0;6192199.0
09:43:57.622;6154220.0;6193305.0
09:43:57.662;6154357.0;6193003.0
09:43:57.702;6154531.0;6192140.0
09:43:57.742;6154355.0;6191690.0
09:43:57.782;6154705.0;6193045.0
09:43:57.822;6154179.0;6193551.0
09:43:57.862;6150838.0;6185105.0
09:43:57.902;6154549.0;6192194.0
09:43:57.942;6154182.0;6192699.0
09:43:57.982;6154143.0;6192879.0
09:43:58.022;6154287.0;6193120.0
09:43:58.062;6154677.0;6193973.0
09:43:58.102;6155119.0;6195292.0
09:43:58.142;6155415.0;6194296.0
09:43:58.182;6154584.0;6192669.0
09:43:58.222;6154577.0;6192715.0
09:43:58.262;6153832.0;6193117.0
09:43:58.302;6154135.0;6193120.0
09:43:58.342;6153854.0;6192954.0
09:43:58.382;6154217.0;6192666.0
09:43:58.422;6157362.0;6195964.0
09:43:58.462;6151896.0;6189141.0
09:43:58.502;6154130.0;6192933.0
09:43:58.542;6154455.0;6193215.0
09:43:58.582;6154057.0;6193482.0
09:43:58.622;6154208.0;6193678.0
09:43:58.662;6154769.0;6194211.0
09:43:58.702;6155690.0;6195119.0
09:43:58.742;6154890.0;6194274.0
09:43:58.782;6154289.0;6193283.0
09:43:58.822;6154111.0;6192582.0
09:43:58.862;6154956.0;6193077.0
09:43:58.902;6154266.0;6193563.0
09:43:58.942;6154212.0;6193074.0
09:43:58.982;6153941.0;6192470.0
09:43:59.022;6155482.0;6193718.0
09:43:59.062;6154527.0;6193747.0
09:43:59.102;6154381.0;6193331.0
09:43:59.142;6154024.0;6192536.0
09:43:59.182;6157034.0;6193778.0
09:43:59.222;6151511.0;6186049.0
09:43:59.262;6154281.0;6193539.0
09:43:59.302;6154047.0;6192916.0
09:43:59.342;6154120.0;6193202.0
09:43:59.382;6154678.0;6194428.0
09:43:59.422;6155169.0;6194778.0
09:43:59.462;6155725.0;6195030.0
09:43:59.502;6155216.0;6194763.0
09:43:59.542;6154708.0;6193829.0
09:43:59.582;6154439.0;6193045.0
09:43:59.622;6153794.0;6193294.0
09:43:59.662;6154705.0;6193641.0
09:43:59.702;6154854.0;6193855.0
09:43:59.742;6153774.0;6193247.0
09:43:59.782;6154364.0;6193646.0
09:43:59.822;6154604.0;6193139.0
09:43:59.862;6154719.0;6193198.0
09:43:59.902;6154950.0;6194503.0
09:43:59.942;6151308.0;6186962.0
09:43:59.982;6154633.0;6193484.0
09:44:00.022;6154741.0;6192956.0
09:44:00.062;6154785.0;6193318.0
09:44:00.102;6154423.0;6193856.0
09:44:00.142;6154786.0;6194203.0
09:44:00.182;6155375.0;6195127.0
09:44:00.222;6155775.0;6194961.0
09:44:00.262;6154803.0;6193434.0
09:44:00.302;6154689.0;6192696.0
09:44:00.342;6154158.0;6192974.0
09:44:00.382;6154520.0;6193377.0
09:44:00.422;6154475.0;6193791.0
09:44:00.462;6150978.0;6186264.0
09:44:00.502;6154167.0;6192792.0
09:44:00.542;6154941.0;6193377.0
09:44:00.582;6154604.0;6193556.0
09:44:00.622;6154568.0;6193113.0
09:44:00.662;6154364.0;6194167.0
09:44:00.702;6155804.0;6195538.0
09:44:00.742;6155547.0;6194257.0
09:44:00.782;6154761.0;6192682.0
09:44:00.822;6154011.0;6192940.0
09:44:00.862;6154784.0;6193457.0
09:44:00.902;6154538.0;6192954.0
09:44:00.942;6157136.0;6195252.0
09:44:00.982;6151565.0;6188668.0
09:44:01.022;6154861.0;6193292.0
09:44:01.062;6154343.0;6192647.0
09:44:01.102;6153919.0;6192807.0
09:44:01.142;6154894.0;6193921.0
09:44:01.182;6155527.0;6195363.0
09:44:01.222;6154695.0;6194117.0
09:44:01.262;6154655.0;6193268.0
09:44:01.302;6154675.0;6193092.0
09:44:01.342;6154341.0;6192715.0
09:44:01.382;6157283.0;6194222.0
09:44:01.422;6153797.0;6191215.0
09:44:01.812;6154488.0;6192711.0
09:44:01.852;6153964.0;6193085.0
09:44:01.892;6155369.0;6194334.0
09:44:01.932;6154499.0;6193020.0
09:44:01.972;6155883.0;6192558.0
09:44:02.012;6151289.0;6185275.0
09:44:02.052;6155132.0;6193613.0
09:44:02.092;6154565.0;6193782.0
09:44:02.132;6154689.0;6193113.0
09:44:02.172;6154821.0;6193413.0
09:44:02.212;6155638.0;6195361.0
09:44:02.252;6155610.0;6195241.0
09:44:02.292;6154971.0;6193481.0
09:44:02.332;6154445.0;6192349.0
09:44:02.372;6154798.0;6192433.0
09:44:02.412;6154744.0;6193471.0
09:44:02.452;6154232.0;6192890.0
09:44:02.492;6154403.0;6193135.0
09:44:02.532;6154802.0;6193156.0
09:44:02.572;6155114.0;6193711.0
09:44:02.612;6154427.0;6192759.0
09:44:02.652;6154547.0;6192604.0
09:44:02.692;6154000.0;6192539.0
09:44:02.732;6158029.0;6195901.0
09:44:02.772;6152586.0;6189672.0
09:44:02.812;6154915.0;6193121.0
09:44:02.852;6153937.0;6192521.0
09:44:02.892;6154804.0;6193546.0
09:44:02.932;6154714.0;6193538.0
09:44:02.972;6155480.0;6194145.0
09:44:03.012;6155540.0;6194570.0
09:44:03.052;6155188.0;6193306.0
09:44:03.092;6154682.0;6192615.0
09:44:03.132;6154679.0;6192676.0
09:44:03.172;6154545.0;6193047.0
09:44:03.212;6154726.0;6192665.0
09:44:03.252;6154700.0;6192738.0
09:44:03.292;6154311.0;6192443.0
09:44:03.332;6154662.0;6192941.0
09:44:03.372;6154720.0;6192146.0
09:44:03.412;6154760.0;6193126.0
09:44:03.452;6151155.0;6185828.0
09:44:03.492;6154533.0;6192740.0
09:44:03.532;6154797.0;6192258.0
09:44:03.572;6154709.0;6192405.0
09:44:03.612;6154409.0;6192770.0
09:44:03.652;6155063.0;6193410.0
09:44:03.692;6155449.0;6194074.0
09:44:03.732;6154938.0;6193719.0
09:44:03.772;6155139.0;6193275.0
09:44:03.812;6154771.0;6192352.0
09:44:03.852;6154311.0;6191736.0
09:44:03.892;6153726.0;6192097.0
09:44:03.932;6154825.0;6193131.0
09:44:03.972;6155468.0;6192622.0
09:44:04.012;6150765.0;6184268.0
09:44:04.052;6154325.0;6192553.0
09:44:04.092;6154726.0;6193004.0
09:44:04.132;6154399.0;6192551.0
09:44:04.172;6153786.0;6192678.0
09:44:04.212;6154615.0;6193923.0
09:44:04.252;6155418.0;6194536.0
09:44:04.292;6154314.0;6193537.0
09:44:04.332;6154367.0;6192971.0
09:44:04.372;6153941.0;6192714.0
09:44:04.412;6153676.0;6192261.0
09:44:04.452;6154194.0;6192925.0
09:44:04.492;6154165.0;6193778.0
09:44:04.532;6154984.0;6193320.0
09:44:04.572;6150893.0;6184290.0
09:44:04.612;6153634.0;6192920.0
09:44:04.652;6154744.0;6194043.0
09:44:04.692;6155005.0;6193775.0
09:44:04.732;6153954.0;6192983.0
09:44:04.772;6154292.0;6194255.0
09:44:04.812;6156054.0;6196017.0
09:44:04.852;6155702.0;6193881.0
09:44:04.892;6153882.0;6192151.0
09:44:04.932;6154308.0;6192785.0
09:44:04.972;6155158.0;6193023.0
09:44:05.012;6154774.0;6193200.0
09:44:05.052;6155799.0;6192595.0
09:44:05.092;6153592.0;6191104.0
09:44:05.132;6155011.0;6193047.0
09:44:05.172;6154079.0;6192734.0
09:44:05.212;6154700.0;6192703.0
09:44:05.252;6155254.0;6193876.0
09:44:05.292;6156068.0;6195226.0
09:44:05.332;6154613.0;6194259.0
09:44:05.372;6154577.0;6192787.0
09:44:05.412;6154693.0;6192563.0
09:44:05.452;6154788.0;6192292.0
09:44:05.492;6153855.0;6192680.0
09:44:05.532;6153924.0;6192317.0
09:44:05.572;6154855.0;6192753.0
09:44:05.612;6154586.0;6192447.0
09:44:05.652;6153821.0;6192810.0
09:44:05.692;6154388.0;6192723.0
09:44:05.732;6157573.0;6194598.0
09:44:05.772;6152320.0;6188521.0
09:44:06.323;6153748.0;6192243.0
09:44:06.363;6154053.0;6192277.0
09:44:06.403;6153759.0;6192124.0
09:44:06.443;6154126.0;6192182.0
09:44:06.483;6154776.0;6192223.0
09:44:06.523;6156708.0;6191027.0
09:44:06.563;6152823.0;6190617.0
09:44:06.603;6154034.0;6192344.0
09:44:06.643;6154544.0;6192165.0
09:44:06.683;6153949.0;6192563.0
09:44:06.723;6153964.0;6192726.0
09:44:06.763;6154635.0;6194512.0
09:44:06.803;6155095.0;6194276.0
09:44:06.843;6154470.0;6192910.0
09:44:06.883;6154680.0;6192734.0
09:44:06.923;6154338.0;6192367.0
09:44:06.963;6154057.0;6193046.0
09:44:07.003;6154799.0;6192617.0
09:44:07.043;6154335.0;6192292.0
09:44:07.083;6153650.0;6192045.0
09:44:07.123;6154197.0;6192600.0
09:44:07.163;6155198.0;6192630.0
09:44:07.203;6154778.0;6192643.0
09:44:07.243;6152691.0;6188888.0
09:44:07.283;6153776.0;6191413.0
09:44:07.323;6155340.0;6193562.0
09:44:07.363;6154400.0;6192897.0
09:44:07.403;6153931.0;6192645.0
09:44:07.443;6155613.0;6194213.0
09:44:07.483;6155777.0;6194710.0
09:44:07.523;6155069.0;6193959.0
09:44:07.563;6154766.0;6193222.0
09:44:07.603;6155424.0;6193701.0
09:44:07.643;6154127.0;6192748.0
09:44:07.683;6154266.0;6193300.0
09:44:07.723;6154988.0;6193508.0
09:44:07.763;6155265.0;6193408.0
09:44:07.803;6157642.0;6195738.0
09:44:07.843;6152084.0;6187638.0
09:44:07.883;6155505.0;6193771.0
09:44:07.923;6155116.0;6194108.0
09:44:07.963;6155043.0;6193466.0
09:44:08.003;6154720.0;6193102.0
09:44:08.043;6155172.0;6194848.0
09:44:08.083;6157491.0;6197050.0
09:44:08.123;6154905.0;6193653.0
09:44:08.163;6154096.0;6192147.0
09:44:08.203;6154069.0;6192271.0
09:44:08.243;6154526.0;6192379.0
09:44:08.283;6155715.0;6194077.0
09:44:08.323;6157584.0;6195905.0
09:44:08.363;6152834.0;6189089.0
09:44:08.403;6154874.0;6192744.0
09:44:08.443;6154560.0;6192999.0
09:44:08.483;6154822.0;6193744.0
09:44:08.523;6155320.0;6194290.0
09:44:08.563;6156335.0;6195299.0
09:44:08.603;6155529.0;6195379.0
09:44:08.643;6154846.0;6193294.0
09:44:08.683;6155296.0;6193188.0
09:44:08.723;6154416.0;6193153.0
09:44:08.763;6154353.0;6192894.0
09:44:08.803;6154605.0;6192850.0
09:44:08.843;6155067.0;6193111.0
09:44:08.883;6156190.0;6194240.0
09:44:08.923;6154073.0;6193406.0
09:44:08.963;6153953.0;6193130.0
09:44:09.003;6154763.0;6193269.0
09:44:09.043;6155133.0;6193179.0
09:44:09.083;6154448.0;6193678.0
09:44:09.123;6154373.0;6193831.0
09:44:09.163;6151290.0;6185821.0
09:44:09.203;6155757.0;6193821.0
09:44:09.243;6154230.0;6193118.0
09:44:09.283;6153973.0;6193377.0
09:44:09.323;6154988.0;6193451.0
09:44:09.363;6155851.0;6194333.0
09:44:09.403;6155027.0;6194633.0
09:44:09.443;6155211.0;6194409.0
09:44:09.483;6155439.0;6192987.0
09:44:09.523;6155157.0;6192797.0
09:44:09.563;6154309.0;6192754.0
09:44:09.603;6154723.0;6193060.0
09:44:09.643;6155331.0;6193455.0
09:44:09.683;6155028.0;6193628.0
09:44:09.723;6154861.0;6193247.0
09:44:09.763;6154810.0;6192745.0
09:44:09.803;6155680.0;6192898.0
09:44:09.843;6156857.0;6193317.0
09:44:09.883;6152200.0;6186643.0
09:44:09.923;6154738.0;6193162.0
09:44:09.963;6155639.0;6193500.0
09:44:10.003;6154611.0;6193356.0
09:44:10.043;6154873.0;6193802.0
09:44:10.083;6155385.0;6194668.0
09:44:10.123;6156277.0;6195742.0
09:44:10.163;6155260.0;6194367.0
09:44:10.203;6154932.0;6193064.0
09:44:10.243;6155468.0;6193588.0
09:44:10.283;6155447.0;6193628.0
09:44:11.850;6154693.0;6193006.0
09:44:11.890;6155217.0;6193230.0
09:44:11.930;6155025.0;6193477.0
09:44:11.970;6155324.0;6195123.0
09:44:12.010;6155948.0;6194788.0
09:44:12.050;6155796.0;6193987.0
09:44:12.090;6155087.0;6192995.0
09:44:12.130;6154427.0;6193411.0
09:44:12.170;6154671.0;6193074.0
09:44:12.210;6154958.0;6192330.0
09:44:12.250;6155007.0;6193148.0
09:44:12.290;6157755.0;6196230.0
09:44:12.330;6153172.0;6189541.0
09:44:12.370;6154699.0;6192547.0
09:44:12.410;6156683.0;6194341.0
09:44:12.450;6155132.0;6194282.0
09:44:12.490;6154916.0;6193466.0
09:44:12.530;6155645.0;6194305.0
09:44:12.570;6157796.0;6195846.0
09:44:12.610;6155584.0;6194312.0
09:44:12.650;6154835.0;6192983.0
09:44:12.690;6154593.0;6191771.0
09:44:12.730;6155734.0;6193371.0
09:44:12.770;6155294.0;6193849.0
09:44:12.810;6155205.0;6193390.0
09:44:12.850;6155019.0;6192728.0
09:44:12.890;6155065.0;6193342.0
09:44:12.930;6157032.0;6193930.0
09:44:12.970;6152479.0;6186419.0
09:44:13.010;6154843.0;6192106.0
09:44:13.050;6155146.0;6192447.0
09:44:13.090;6155356.0;6193966.0
09:44:13.130;6155310.0;6193904.0
09:44:13.170;6155268.0;6193695.0
09:44:13.210;6155816.0;6194017.0
09:44:13.250;6156314.0;6194451.0
09:44:13.290;6155329.0;6193695.0
09:44:13.330;6154957.0;6192136.0
09:44:13.370;6154820.0;6191873.0
09:44:13.410;6154873.0;6192037.0
09:44:13.450;6155163.0;6193880.0
09:44:13.490;6155095.0;6193506.0
09:44:13.530;6153938.0;6188407.0
09:44:13.570;6154697.0;6191044.0
09:44:13.610;6155998.0;6193480.0
09:44:13.650;6155022.0;6193199.0
09:44:13.690;6154903.0;6192606.0
09:44:13.730;6155132.0;6192866.0
09:44:13.770;6156624.0;6194859.0
09:44:13.810;6155867.0;6194232.0
09:44:13.850;6155171.0;6192803.0
09:44:13.890;6155614.0;6192410.0
09:44:13.930;6155347.0;6193196.0
09:44:13.970;6154563.0;6192206.0
09:44:14.010;6154398.0;6191893.0
09:44:14.050;6155751.0;6192612.0
09:44:14.090;6155479.0;6193323.0
09:44:14.130;6157599.0;6194681.0
09:44:14.170;6152890.0;6188095.0
09:44:14.210;6155412.0;6192144.0
09:44:14.250;6155577.0;6193752.0
09:44:14.290;6154901.0;6192698.0
09:44:14.330;6154813.0;6192523.0
09:44:14.370;6156174.0;6194108.0
09:44:14.410;6156108.0;6194662.0
09:44:14.450;6154789.0;6191997.0
09:44:14.490;6154612.0;6191511.0
09:44:14.530;6156092.0;6192769.0
09:44:14.570;6154760.0;6192811.0
09:44:14.610;6154558.0;6191918.0
09:44:14.650;6154846.0;6191927.0
09:44:14.690;6155914.0;6193478.0
09:44:14.730;6154996.0;6192340.0
09:44:14.770;6154499.0;6191351.0
09:44:14.810;6154807.0;6191889.0
09:44:14.850;6154857.0;6192871.0
09:44:14.890;6155275.0;6192522.0
09:44:14.930;6154987.0;6192079.0
09:44:14.970;6155242.0;6191989.0
09:44:15.010;6155033.0;6192821.0
09:44:15.050;6154976.0;6192139.0
09:44:15.090;6155030.0;6191986.0
09:44:15.130;6155619.0;6193500.0
09:44:15.170;6151609.0;6184883.0
09:44:15.210;6154976.0;6192114.0
09:44:15.250;6155142.0;6192047.0
09:44:15.290;6156171.0;6192684.0
09:44:15.330;6155414.0;6193705.0
09:44:15.370;6155316.0;6193128.0
09:44:15.410;6156086.0;6193482.0
09:44:15.450;6155841.0;6193794.0
09:44:15.490;6155605.0;6193173.0
09:44:15.530;6155452.0;6192483.0
09:44:15.570;6155037.0;6191726.0
09:44:15.610;6155394.0;6192296.0
09:44:15.650;6156043.0;6192869.0
09:44:15.690;6155226.0;6192213.0
09:44:15.730;6155934.0;6192540.0
09:44:15.770;6153001.0;6184947.0
09:44:15.810;6155704.0;6192381.0
09:44:17.791;6154525.0;6192219.0
09:44:17.831;6155545.0;6193014.0
09:44:17.871;6155924.0;6193720.0
09:44:17.911;6157215.0;6195351.0
09:44:17.951;6156762.0;6194104.0
09:44:17.991;6155618.0;6192607.0
09:44:18.031;6155509.0;6192112.0
09:44:18.071;6156612.0;6193633.0
09:44:18.111;6155752.0;6193363.0
09:44:18.151;6155238.0;6192239.0
09:44:18.191;6155046.0;6191985.0
09:44:18.231;6155856.0;6192750.0
09:44:18.271;6156004.0;6194112.0
09:44:18.311;6152385.0;6185233.0
09:44:18.351;6154716.0;6191247.0
09:44:18.391;6156214.0;6193200.0
09:44:18.431;6155660.0;6193183.0
09:44:18.471;6155331.0;6192349.0
09:44:18.511;6155934.0;6193032.0
09:44:18.551;6157363.0;6195474.0
09:44:18.591;6156569.0;6194401.0
09:44:18.631;6155648.0;6191995.0
09:44:18.671;6156018.0;6192146.0
09:44:18.711;6156296.0;6193286.0
09:44:18.751;6154941.0;6192391.0
09:44:18.791;6155312.0;6192225.0
09:44:18.831;6156643.0;6192835.0
09:44:18.871;6155614.0;6192685.0
09:44:18.911;6154907.0;6191687.0
09:44:18.951;6157996.0;6193858.0
09:44:18.991;6153963.0;6188120.0
09:44:19.031;6155669.0;6192818.0
09:44:19.071;6154719.0;6191788.0
09:44:19.111;6155738.0;6192439.0
09:44:19.151;6156803.0;6193934.0
09:44:19.191;6155838.0;6194047.0
09:44:19.231;6155959.0;6194018.0
09:44:19.271;6156531.0;6193319.0
09:44:19.311;6155508.0;6192435.0
09:44:19.351;6155023.0;6192110.0
09:44:19.391;6155418.0;6192276.0
09:44:19.431;6156045.0;6192749.0
09:44:19.471;6154960.0;6191932.0
09:44:19.511;6157866.0;6193020.0
09:44:19.551;6153058.0;6186718.0
09:44:19.591;6156494.0;6192735.0
09:44:19.631;6155056.0;6192037.0
09:44:19.671;6155151.0;6192095.0
09:44:19.711;6156685.0;6193553.0
09:44:19.751;6156183.0;6194059.0
09:44:19.791;6156602.0;6194649.0
09:44:19.831;6156172.0;6192899.0
09:44:19.871;6156143.0;6193155.0
09:44:19.911;6155596.0;6192245.0
09:44:19.951;6155174.0;6187658.0
09:44:19.991;6155365.0;6192042.0
09:44:20.031;6155410.0;6192606.0
09:44:20.071;6155900.0;6192611.0
09:44:20.111;6155985.0;6192939.0
09:44:20.151;6156465.0;6193281.0
09:44:20.191;6156467.0;6194268.0
09:44:20.231;6156655.0;6193449.0
09:44:20.271;6156083.0;6192567.0
09:44:20.311;6156226.0;6192076.0
09:44:20.351;6157073.0;6192742.0
09:44:20.391;6153658.0;6186523.0
09:44:20.431;6155883.0;6192128.0
09:44:20.471;6155677.0;6191609.0
09:44:20.511;6155691.0;6192231.0
09:44:20.551;6156627.0;6193305.0
09:44:20.591;6157016.0;6193804.0
09:44:20.631;6156042.0;6193140.0
09:44:20.671;6156380.0;6192373.0
09:44:20.711;6156432.0;6191811.0
09:44:20.751;6156299.0;6192375.0
09:44:20.791;6157711.0;6191381.0
09:44:20.831;6155341.0;6191285.0
09:44:20.871;6155645.0;6191480.0
09:44:20.911;6155610.0;6191829.0
09:44:20.951;6156751.0;6193030.0
09:44:20.991;6156383.0;6193713.0
09:44:21.031;6156540.0;6193374.0
09:44:21.071;6156312.0;6192208.0
09:44:21.111;6156100.0;6191632.0
09:44:21.151;6155979.0;6192624.0
09:44:21.191;6156132.0;6192455.0
09:44:21.231;6156303.0;6191741.0
09:44:21.271;6156273.0;6191628.0
09:44:21.311;6156232.0;6192232.0
09:44:21.351;6156055.0;6191999.0
09:44:21.391;6155764.0;6191527.0
09:44:21.431;6156027.0;6191401.0
09:44:21.471;6155808.0;6191863.0
09:44:21.511;6155733.0;6191957.0
09:44:21.551;6155573.0;6191178.0
09:44:21.591;6156530.0;6192458.0
09:44:21.631;6154836.0;6188358.0
09:44:21.671;6154870.0;6189814.0
09:44:21.711;6155629.0;6191267.0
09:44:21.751;6155465.0;6191799.0
09:44:21.883;6155989.0;6192440.0
09:44:21.923;6155262.0;6191643.0
09:44:21.963;6155881.0;6192564.0
09:44:22.003;6155591.0;6191817.0
09:44:22.043;6155356.0;6191128.0
09:44:22.083;6155711.0;6191986.0
09:44:22.123;6155711.0;6192314.0
09:44:22.163;6155588.0;6191569.0
09:44:22.203;6155429.0;6190658.0
09:44:22.243;6156297.0;6191905.0
09:44:22.283;6155679.0;6192209.0
09:44:22.323;6156434.0;6191491.0
09:44:22.363;6152421.0;6184202.0
09:44:22.403;6155763.0;6191770.0
09:44:22.443;6155598.0;6192040.0
09:44:22.483;6155371.0;6191415.0
09:44:22.523;6155362.0;6191349.0
09:44:22.563;6155941.0;6192618.0
09:44:22.603;6156241.0;6193612.0
09:44:22.643;6156328.0;6192836.0
09:44:22.683;6155358.0;6191803.0
09:44:22.723;6155684.0;6191243.0
09:44:22.763;6155237.0;6190993.0
09:44:22.803;6155032.0;6191340.0
09:44:22.843;6158969.0;6193356.0
09:44:22.883;6154366.0;6189204.0
09:44:22.923;6154601.0;6191039.0
09:44:22.963;6155391.0;6191474.0
09:44:23.003;6155975.0;6191967.0
09:44:23.043;6156016.0;6192877.0
09:44:23.083;6155166.0;6193153.0
09:44:23.123;6156466.0;6193709.0
09:44:23.163;6156126.0;6191598.0
09:44:23.203;6154411.0;6190482.0
09:44:23.243;6154962.0;6191439.0
09:44:23.283;6155939.0;6192247.0
09:44:23.323;6155715.0;6191814.0
09:44:23.363;6155676.0;6191950.0
09:44:23.403;6155481.0;6192063.0
09:44:23.443;6155403.0;6191950.0
09:44:23.483;6155160.0;6191278.0
09:44:23.523;6155645.0;6191541.0
09:44:23.563;6155550.0;6192592.0
09:44:23.603;6156106.0;6191897.0
09:44:23.643;6163940.0;6187402.0
09:44:23.683;6155769.0;6188277.0
09:44:23.723;6154903.0;6192191.0
09:44:23.763;6154817.0;6192423.0
09:44:23.803;6154077.0;6192151.0
09:44:23.843;6152894.0;6193220.0
09:44:23.883;6153412.0;6195316.0
09:44:23.923;6153727.0;6194078.0
09:44:23.963;6154854.0;6191634.0
09:44:24.003;6155336.0;6192245.0
09:44:24.043;6155733.0;6192547.0
09:44:24.083;6154650.0;6191306.0
09:44:24.123;6154535.0;6191682.0
09:44:24.163;6156100.0;6192599.0
09:44:24.203;6152988.0;6180068.0
09:44:24.243;6155134.0;6191926.0
09:44:24.283;6156084.0;6192797.0
09:44:24.323;6155537.0;6192358.0
09:44:24.363;6154386.0;6192171.0
09:44:24.403;6155208.0;6194045.0
09:44:24.443;6157035.0;6196575.0
09:44:24.483;6156042.0;6193195.0
09:44:24.523;6155281.0;6191901.0
09:44:24.563;6155945.0;6192028.0
09:44:24.603;6155306.0;6191637.0
09:44:24.643;6155069.0;6191290.0
09:44:24.683;6155941.0;6191933.0
09:44:24.723;6155350.0;6191739.0
09:44:24.763;6155171.0;6191092.0
09:44:24.803;6155234.0;6191172.0
09:44:24.843;6155649.0;6191707.0
09:44:24.883;6155039.0;6191997.0
09:44:24.923;6155199.0;6191064.0
09:44:24.963;6155122.0;6190561.0
09:44:25.003;6157931.0;6193849.0
09:44:25.043;6152863.0;6187203.0
09:44:25.083;6155024.0;6190500.0
09:44:25.123;6154996.0;6191196.0
09:44:25.163;6155422.0;6191867.0
09:44:25.203;6156044.0;6192150.0
09:44:25.243;6155108.0;6191132.0
09:44:25.283;6155702.0;6191802.0
09:44:25.323;6156324.0;6192218.0
09:44:25.363;6155434.0;6191082.0
09:44:25.403;6154459.0;6190817.0
09:44:25.443;6155112.0;6190653.0
09:44:25.483;6155845.0;6190409.0
09:44:25.523;6156286.0;6190987.0
09:44:25.563;6152383.0;6182198.0
09:44:25.603;6155300.0;6190850.0
09:44:25.643;6155260.0;6190524.0
09:44:25.683;6155150.0;6190667.0
09:44:25.723;6155971.0;6192445.0
09:44:25.763;6155511.0;6192518.0
09:44:25.803;6155519.0;6193283.0
09:44:25.843;6155545.0;6191188.0
09:44:26.390;6156151.0;6191440.0
09:44:26.430;6155005.0;6189497.0
09:44:26.470;6155456.0;6190216.0
09:44:26.510;6155945.0;6192502.0
09:44:26.550;6155606.0;6192035.0
09:44:26.590;6155471.0;6190637.0
09:44:26.630;6155004.0;6189606.0
09:44:26.670;6156295.0;6191596.0
09:44:26.710;6154957.0;6190304.0
09:44:26.750;6156255.0;6183245.0
09:44:26.790;6153979.0;6188401.0
09:44:26.830;6156575.0;6191207.0
09:44:26.870;6155049.0;6191056.0
09:44:26.910;6154993.0;6190569.0
09:44:26.950;6154758.0;6191175.0
09:44:26.990;6156211.0;6192998.0
09:44:27.030;6155793.0;6192121.0
09:44:27.070;6155026.0;6189588.0
09:44:27.110;6155052.0;6189529.0
09:44:27.150;6155536.0;6190613.0
09:44:27.190;6155363.0;6190944.0
09:44:27.230;6158454.0;6191473.0
09:44:27.270;6152084.0;6184015.0
09:44:27.310;6155057.0;6190243.0
09:44:27.350;6155733.0;6190856.0
09:44:27.390;6155605.0;6190333.0
09:44:27.430;6154883.0;6190257.0
09:44:27.470;6156479.0;6191940.0
09:44:27.510;6157187.0;6192298.0
09:44:27.550;6155586.0;6190201.0
09:44:27.590;6155352.0;6189815.0
09:44:27.630;6156076.0;6190355.0
09:44:27.670;6155283.0;6189817.0
09:44:27.710;6154991.0;6189871.0
09:44:27.750;6155689.0;6190538.0
09:44:27.790;6155830.0;6190619.0
09:44:27.830;6155402.0;6189927.0
09:44:27.870;6155065.0;6190086.0
09:44:27.910;6155199.0;6190123.0
09:44:27.950;6153629.0;6185428.0
09:44:27.990;6154591.0;6188576.0
09:44:28.030;6155042.0;6189866.0
09:44:28.070;6155234.0;6190533.0
09:44:28.110;6155713.0;6191244.0
09:44:28.150;6155898.0;6190800.0
09:44:28.190;6156168.0;6191577.0
09:44:28.230;6156491.0;6191966.0
09:44:28.270;6155420.0;6190268.0
09:44:28.310;6155162.0;6189462.0
09:44:28.350;6155331.0;6190133.0
09:44:28.390;6155907.0;6190436.0
09:44:28.430;6155143.0;6189984.0
09:44:28.470;6155000.0;6190177.0
09:44:28.510;6153745.0;6185641.0
09:44:28.550;6155795.0;6190028.0
09:44:28.590;6154643.0;6189732.0
09:44:28.630;6154761.0;6189261.0
09:44:28.670;6156372.0;6190889.0
09:44:28.710;6156099.0;6191616.0
09:44:28.750;6155577.0;6191752.0
09:44:28.790;6156129.0;6191411.0
09:44:28.830;6156631.0;6190384.0
09:44:28.870;6154949.0;6189347.0
09:44:28.910;6154709.0;6188976.0
09:44:28.950;6155620.0;6190348.0
09:44:28.990;6156352.0;6190750.0
09:44:29.030;6155179.0;6189944.0
09:44:29.070;6154715.0;6189356.0
09:44:29.110;6155169.0;6188957.0
09:44:29.150;6157980.0;6190559.0
09:44:29.190;6152559.0;6183388.0
09:44:29.230;6154928.0;6189349.0
09:44:29.270;6154716.0;6188711.0
09:44:29.310;6156066.0;6190237.0
09:44:29.350;6156103.0;6191222.0
09:44:29.390;6155646.0;6190580.0
09:44:29.430;6155929.0;6190771.0
09:44:29.470;6156623.0;6190935.0
09:44:29.510;6156090.0;6190468.0
09:44:29.550;6155624.0;6189210.0
09:44:29.590;6155497.0;6188999.0
09:44:29.630;6155949.0;6189685.0
09:44:29.670;6155500.0;6190900.0
09:44:29.710;6155519.0;6190126.0
09:44:29.750;6155235.0;6189931.0
09:44:29.790;6152660.0;6183730.0
09:44:29.830;6156472.0;6190846.0
09:44:29.870;6155450.0;6190353.0
09:44:29.910;6155366.0;6189371.0
09:44:29.950;6155693.0;6189728.0
09:44:29.990;6156612.0;6191807.0
09:44:30.030;6156043.0;6192134.0
09:44:30.070;6156151.0;6190745.0
09:44:30.110;6155790.0;6189767.0
09:44:30.150;6155799.0;6190988.0
09:44:30.190;6155360.0;6189875.0
09:44:30.230;6155179.0;6189000.0
09:44:30.270;6156059.0;6189300.0
09:44:30.310;6155596.0;6190518.0
09:44:30.350;6155045.0;6189978.0
09:44:30.898;6155488.0;6189712.0
09:44:30.938;6155876.0;6190312.0
09:44:30.978;6156396.0;6190171.0
09:44:31.018;6155419.0;6190438.0
09:44:31.058;6155308.0;6190051.0
09:44:31.098;6156100.0;6191220.0
09:44:31.138;6152933.0;6182413.0
09:44:31.178;6155073.0;6190230.0
09:44:31.218;6155605.0;6190127.0
09:44:31.258;6156196.0;6190758.0
09:44:31.298;6155480.0;6190464.0
09:44:31.338;6155624.0;6191947.0
09:44:31.378;6156953.0;6192938.0
09:44:31.418;6157071.0;6190798.0
09:44:31.458;6155363.0;6189899.0
09:44:31.498;6155126.0;6190029.0
09:44:31.538;6156148.0;6190470.0
09:44:31.578;6156102.0;6189600.0
09:44:31.618;6155499.0;6189756.0
09:44:31.658;6155472.0;6190061.0
09:44:31.698;6155675.0;6189945.0
09:44:31.738;6156066.0;6189820.0
09:44:31.778;6158203.0;6191685.0
09:44:31.818;6153420.0;6186173.0
09:44:31.858;6155733.0;6189872.0
09:44:31.898;6155643.0;6189863.0
09:44:31.938;6155180.0;6189998.0
09:44:31.978;6155789.0;6190855.0
09:44:32.018;6156738.0;6191371.0
09:44:32.058;6156133.0;6191114.0
09:44:32.098;6155801.0;6190614.0
09:44:32.138;6156364.0;6189974.0
09:44:32.178;6155152.0;6188889.0
09:44:32.218;6155313.0;6189524.0
09:44:32.258;6155717.0;6190166.0
09:44:32.298;6155908.0;6190012.0
09:44:32.338;6153509.0;6183805.0
09:44:32.378;6155099.0;6188920.0
09:44:32.418;6155902.0;6190000.0
09:44:32.458;6156028.0;6189654.0
09:44:32.498;6155082.0;6189337.0
09:44:32.538;6155531.0;6190462.0
09:44:32.578;6156854.0;6192130.0
09:44:32.618;6156380.0;6190810.0
09:44:32.658;6155512.0;6189503.0
09:44:32.698;6155568.0;6190004.0
09:44:32.738;6155947.0;6189786.0
09:44:32.778;6154868.0;6188882.0
09:44:32.818;6155161.0;6189115.0
09:44:32.858;6156063.0;6190413.0
09:44:32.898;6156034.0;6190134.0
09:44:32.938;6158335.0;6192050.0
09:44:32.978;6152548.0;6184553.0
09:44:33.018;6156116.0;6190636.0
09:44:33.058;6155475.0;6189633.0
09:44:33.098;6155344.0;6190365.0
09:44:33.138;6155821.0;6190888.0
09:44:33.178;6156680.0;6191564.0
09:44:33.218;6156625.0;6191593.0
09:44:33.258;6156074.0;6190597.0
09:44:33.298;6156405.0;6190224.0
09:44:33.338;6156400.0;6190263.0
09:44:33.378;6155084.0;6189880.0
09:44:33.418;6155454.0;6190208.0
09:44:33.458;6155935.0;6189751.0
09:44:33.498;6156453.0;6190162.0
09:44:33.538;6154915.0;6190322.0
09:44:33.578;6155434.0;6190833.0
09:44:33.618;6156210.0;6190435.0
09:44:33.658;6155968.0;6189912.0
09:44:33.698;6157913.0;6191605.0
09:44:33.738;6153371.0;6186776.0
09:44:33.778;6156260.0;6190675.0
09:44:33.818;6155842.0;6190588.0
09:44:33.858;6156027.0;6191103.0
09:44:33.898;6155875.0;6190655.0
09:44:33.938;6157510.0;6192847.0
09:44:33.978;6156836.0;6192152.0
09:44:34.018;6156092.0;6190713.0
09:44:34.058;6155361.0;6189881.0
09:44:34.098;6156619.0;6190893.0
09:44:34.138;6156000.0;6190596.0
09:44:34.178;6156143.0;6190618.0
09:44:34.218;6155635.0;6190306.0
09:44:34.258;6156243.0;6190312.0
09:44:34.298;6156157.0;6190661.0
09:44:34.338;6155806.0;6190519.0
09:44:34.378;6155098.0;6189907.0
09:44:34.418;6154984.0;6189551.0
09:44:34.458;6157038.0;6192572.0
09:44:34.498;6153696.0;6185507.0
09:44:34.538;6155438.0;6189933.0
09:44:34.578;6155360.0;6190257.0
09:44:34.618;6155942.0;6191318.0
09:44:34.658;6156131.0;6191756.0
09:44:34.698;6155975.0;6191743.0
09:44:34.738;6156324.0;6192177.0
09:44:34.778;6156826.0;6193029.0
09:44:34.818;6156110.0;6191452.0
09:44:34.858;6155813.0;6190488.0
09:44:35.197;6155725.0;6190089.0
09:44:35.237;6155083.0;6190107.0
09:44:35.277;6155114.0;6189671.0
09:44:35.317;6157285.0;6191831.0
09:44:35.357;6152285.0;6184058.0
09:44:35.397;6155256.0;6190305.0
09:44:35.437;6155530.0;6190608.0
09:44:35.477;6156325.0;6191250.0
09:44:35.517;6155353.0;6191049.0
09:44:35.557;6155225.0;6191051.0
09:44:35.597;6156185.0;6192454.0
09:44:35.637;6156840.0;6192876.0
09:44:35.677;6154888.0;6191283.0
09:44:35.717;6155277.0;6190944.0
09:44:35.757;6156252.0;6191353.0
09:44:35.797;6155328.0;6191598.0
09:44:35.837;6154607.0;6190708.0
09:44:35.877;6157804.0;6188010.0
09:44:35.917;6154905.0;6190754.0
09:44:35.957;6155275.0;6191636.0
09:44:35.997;6154869.0;6191394.0
09:44:36.037;6155886.0;6192183.0
09:44:36.077;6155973.0;6193266.0
09:44:36.117;6155728.0;6193750.0
09:44:36.157;6155738.0;6193701.0
09:44:36.197;6156279.0;6192325.0
09:44:36.237;6155970.0;6192235.0
09:44:36.277;6155319.0;6191284.0
09:44:36.317;6154988.0;6190977.0
09:44:36.357;6156155.0;6192272.0
09:44:36.397;6156222.0;6192223.0
09:44:36.437;6155630.0;6191162.0
09:44:36.477;6155378.0;6190889.0
09:44:36.517;6156117.0;6191877.0
09:44:36.557;6155900.0;6192090.0
09:44:36.597;6155503.0;6191324.0
09:44:36.637;6155806.0;6191395.0
09:44:36.677;6158843.0;6189962.0
09:44:36.717;6165264.0;6181005.0
09:44:36.757;6157322.0;6184111.0
09:44:36.797;6154957.0;6190409.0
09:44:36.837;6153685.0;6193314.0
09:44:36.877;6154038.0;6194636.0
09:44:36.917;6152785.0;6195804.0
09:44:36.957;6151391.0;6197536.0
09:44:36.997;6152694.0;6198228.0
09:44:37.037;6155045.0;6196011.0
09:44:37.077;6155710.0;6192834.0
09:44:37.117;6155494.0;6192105.0
09:44:37.157;6156785.0;6193180.0
09:44:37.197;6155427.0;6192278.0
09:44:37.237;6155276.0;6191863.0
09:44:37.277;6155432.0;6192286.0
09:44:37.317;6156976.0;6193456.0
09:44:37.357;6155919.0;6192537.0
09:44:37.397;6155527.0;6191589.0
09:44:37.437;6155704.0;6192045.0
09:44:37.477;6156118.0;6192696.0
09:44:37.517;6155653.0;6191965.0
09:44:37.557;6155748.0;6191812.0
09:44:37.597;6155876.0;6191938.0
09:44:37.637;6156058.0;6192717.0
09:44:37.677;6155798.0;6192284.0
09:44:37.717;6157599.0;6193068.0
09:44:37.757;6154533.0;6188849.0
09:44:37.797;6157606.0;6193251.0
09:44:37.837;6155555.0;6191894.0
09:44:37.877;6155309.0;6191636.0
09:44:37.917;6155566.0;6191858.0
09:44:37.957;6156831.0;6193218.0
09:44:37.997;6157304.0;6194296.0
09:44:38.037;6156251.0;6192762.0
09:44:38.077;6155304.0;6191450.0
09:44:38.117;6154968.0;6190759.0
09:44:38.157;6156583.0;6192361.0
09:44:38.197;6156078.0;6192070.0
09:44:38.237;6156004.0;6192292.0
09:44:38.277;6158071.0;6192925.0
09:44:38.317;6152937.0;6186323.0
09:44:38.357;6155924.0;6192254.0
09:44:38.397;6155987.0;6192441.0
09:44:38.437;6155958.0;6191804.0
09:44:38.477;6155856.0;6191490.0
09:44:38.517;6156286.0;6192574.0
09:44:38.557;6157133.0;6195577.0
09:44:38.597;6157105.0;6193147.0
09:44:38.637;6155918.0;6191363.0
09:44:38.677;6155727.0;6191167.0
09:44:38.717;6156454.0;6192725.0
09:44:38.757;6155822.0;6192019.0
09:44:38.797;6155825.0;6192303.0
09:44:38.837;6152027.0;6183775.0
09:44:38.877;6156801.0;6192301.0
09:44:38.917;6155972.0;6192342.0
09:44:38.957;6155976.0;6192083.0
09:44:38.997;6155992.0;6192033.0
09:44:39.037;6156134.0;6192718.0
09:44:39.077;6156548.0;6194286.0
09:44:39.117;6156467.0;6193313.0
09:44:39.157;6155889.0;6191901.0
09:44:39.602;6155394.0;6191448.0
09:44:39.642;6155305.0;6192889.0
09:44:39.682;6155684.0;6194077.0
09:44:39.722;6152414.0;6184287.0
09:44:39.762;6155019.0;6190460.0
09:44:39.802;6155511.0;6192549.0
09:44:39.842;6155604.0;6193071.0
09:44:39.882;6155775.0;6192475.0
09:44:39.922;6155936.0;6192657.0
09:44:39.962;6156622.0;6194827.0
09:44:40.002;6156906.0;6194541.0
09:44:40.042;6155807.0;6192436.0
09:44:40.082;6155240.0;6191362.0
09:44:40.122;6155971.0;6192871.0
09:44:40.162;6155909.0;6193345.0
09:44:40.202;6155782.0;6192707.0
09:44:40.242;6155753.0;6191881.0
09:44:40.282;6155868.0;6192109.0
09:44:40.322;6157291.0;6192436.0
09:44:40.362;6154863.0;6190908.0
09:44:40.402;6155641.0;6192000.0
09:44:40.442;6155534.0;6192016.0
09:44:40.482;6155865.0;6193599.0
09:44:40.522;6156083.0;6194144.0
09:44:40.562;6156699.0;6194456.0
09:44:40.602;6156765.0;6193783.0
09:44:40.642;6157161.0;6193889.0
09:44:40.682;6155704.0;6193216.0
09:44:40.722;6155614.0;6191958.0
09:44:40.762;6155340.0;6191655.0
09:44:40.802;6156449.0;6192880.0
09:44:40.842;6155753.0;6193279.0
09:44:40.882;6155933.0;6193055.0
09:44:40.922;6155544.0;6192551.0
09:44:40.962;6153934.0;6187670.0
09:44:41.002;6155202.0;6191847.0
09:44:41.042;6155484.0;6192641.0
09:44:41.082;6155563.0;6193203.0
09:44:41.122;6155604.0;6192652.0
09:44:41.162;6155854.0;6193951.0
09:44:41.202;6156808.0;6195422.0
09:44:41.242;6156729.0;6194696.0
09:44:41.282;6155750.0;6192401.0
09:44:41.322;6155368.0;6192858.0
09:44:41.362;6155629.0;6193459.0
09:44:41.402;6155047.0;6192528.0
09:44:41.442;6155021.0;6192134.0
09:44:41.482;6157050.0;6194080.0
09:44:41.522;6155695.0;6193453.0
09:44:41.562;6155328.0;6192687.0
09:44:41.602;6155416.0;6192412.0
09:44:41.642;6156061.0;6192663.0
09:44:41.682;6155524.0;6192919.0
09:44:41.722;6154811.0;6191967.0
09:44:41.762;6154716.0;6191751.0
09:44:41.802;6156140.0;6193506.0
09:44:41.842;6155274.0;6193098.0
09:44:41.882;6155652.0;6190879.0
09:44:41.922;6154249.0;6189590.0
09:44:41.962;6155977.0;6193673.0
09:44:42.002;6155084.0;6192650.0
09:44:42.042;6154691.0;6192166.0
09:44:42.082;6155448.0;6193119.0
09:44:42.122;6156205.0;6194969.0
09:44:42.162;6155901.0;6193787.0
09:44:42.202;6155196.0;6192334.0
09:44:42.242;6155318.0;6192534.0
09:44:42.282;6155742.0;6193878.0
09:44:42.322;6154887.0;6192572.0
09:44:42.362;6154420.0;6191739.0
09:44:42.402;6154802.0;6191868.0
09:44:42.442;6155273.0;6193890.0
09:44:42.482;6155265.0;6193087.0
09:44:42.522;6155183.0;6192429.0
09:44:42.562;6154587.0;6191707.0
09:44:42.602;6157114.0;6192600.0
09:44:42.642;6153851.0;6191045.0
09:44:42.682;6154930.0;6192614.0
09:44:42.722;6154862.0;6192506.0
09:44:42.762;6155364.0;6193479.0
09:44:42.802;6155343.0;6194092.0
09:44:42.842;6155715.0;6194350.0
09:44:42.882;6156395.0;6194408.0
09:44:42.922;6155576.0;6193476.0
09:44:42.962;6154950.0;6193313.0
09:44:43.002;6154742.0;6192492.0
09:44:43.042;6154834.0;6192486.0
09:44:43.082;6154332.0;6192453.0
09:44:43.122;6154747.0;6193840.0
09:44:43.162;6155087.0;6193343.0
09:44:43.202;6154780.0;6192067.0
09:44:43.242;6154181.0;6192074.0
09:44:43.282;6155309.0;6193224.0
09:44:43.322;6154738.0;6193155.0
09:44:43.362;6154785.0;6192950.0
09:44:43.402;6157495.0;6195107.0
09:44:43.442;6151796.0;6187585.0
09:44:43.482;6154558.0;6193043.0
09:44:43.522;6154629.0;6193329.0
09:44:43.562;6154641.0;6192688.0
09:44:44.006;6154519.0;6192346.0
09:44:44.046;6154854.0;6193544.0
09:44:44.086;6154361.0;6192397.0
09:44:44.126;6155450.0;6188545.0
09:44:44.166;6153354.0;6190990.0
09:44:44.206;6154412.0;6192873.0
09:44:44.246;6154943.0;6193864.0
09:44:44.286;6154483.0;6193093.0
09:44:44.326;6154308.0;6193330.0
09:44:44.366;6154711.0;6194898.0
09:44:44.406;6155562.0;6194992.0
09:44:44.446;6154851.0;6193881.0
09:44:44.486;6154399.0;6192091.0
09:44:44.526;6154345.0;6192525.0
09:44:44.566;6151353.0;6185244.0
09:44:44.606;6154123.0;6193027.0
09:44:44.646;6154329.0;6193329.0
09:44:44.686;6154210.0;6192591.0
09:44:44.726;6154321.0;6192657.0
09:44:44.766;6154794.0;6194616.0
09:44:44.806;6155068.0;6194881.0
09:44:44.846;6154624.0;6193273.0
09:44:44.886;6153934.0;6191715.0
09:44:44.926;6153791.0;6192427.0
09:44:44.966;6154330.0;6192921.0
09:44:45.006;6154410.0;6191521.0
09:44:45.046;6152824.0;6190390.0
09:44:45.086;6153634.0;6192667.0
09:44:45.126;6153860.0;6192540.0
09:44:45.166;6154038.0;6192704.0
09:44:45.206;6154289.0;6193451.0
09:44:45.246;6154518.0;6194549.0
09:44:45.286;6154501.0;6193864.0
09:44:45.326;6154022.0;6192865.0
09:44:45.366;6154016.0;6191670.0
09:44:45.406;6153674.0;6192328.0
09:44:45.446;6154070.0;6192408.0
09:44:45.486;6153982.0;6192278.0
09:44:45.526;6154071.0;6192423.0
09:44:45.566;6153560.0;6192186.0
09:44:45.606;6153544.0;6192939.0
09:44:45.646;6150785.0;6185371.0
09:44:45.686;6152808.0;6190450.0
09:44:45.726;6153461.0;6192883.0
09:44:45.766;6153463.0;6192609.0
09:44:45.806;6153663.0;6192395.0
09:44:45.846;6153737.0;6192637.0
09:44:45.886;6153974.0;6192954.0
09:44:45.926;6154489.0;6193869.0
09:44:45.966;6153429.0;6192533.0
09:44:46.006;6152898.0;6191654.0
09:44:46.046;6152829.0;6191392.0
09:44:46.086;6153716.0;6192006.0
09:44:46.126;6153172.0;6193002.0
09:44:46.166;6152732.0;6191957.0
09:44:46.206;6152599.0;6191375.0
09:44:46.246;6152747.0;6191294.0
09:44:46.286;6153755.0;6192877.0
09:44:46.326;6153073.0;6192931.0
09:44:46.366;6152914.0;6192356.0
09:44:46.406;6151418.0;6187076.0
09:44:46.446;6152104.0;6189295.0
09:44:46.486;6153085.0;6192641.0
09:44:46.526;6152810.0;6192402.0
09:44:46.566;6153161.0;6191890.0
09:44:46.606;6153168.0;6191648.0
09:44:46.646;6153668.0;6193031.0
09:44:46.686;6154149.0;6194383.0
09:44:46.726;6153611.0;6192855.0
09:44:46.766;6153102.0;6191560.0
09:44:46.806;6152843.0;6191318.0
09:44:46.846;6154082.0;6192796.0
09:44:46.886;6153082.0;6192613.0
09:44:46.926;6153152.0;6191706.0
09:44:46.966;6153146.0;6191540.0
09:44:47.006;6152595.0;6191332.0
09:44:47.046;6153230.0;6192705.0
09:44:47.086;6156365.0;6194507.0
09:44:47.126;6150477.0;6186630.0
09:44:47.166;6152685.0;6191389.0
09:44:47.206;6153699.0;6192251.0
09:44:47.246;6153367.0;6193174.0
09:44:47.286;6153381.0;6193055.0
09:44:47.326;6153397.0;6192858.0
09:44:47.366;6154080.0;6193571.0
09:44:47.406;6154183.0;6194189.0
09:44:47.446;6153410.0;6193234.0
09:44:47.486;6152789.0;6191632.0
09:44:47.526;6152764.0;6191525.0
09:44:47.566;6154321.0;6193288.0
09:44:47.606;6152916.0;6192621.0
09:44:47.646;6152666.0;6191872.0
09:44:47.686;6152782.0;6191715.0
09:44:47.726;6153415.0;6192764.0
09:44:47.766;6152833.0;6192441.0
09:44:47.806;6152802.0;6192609.0
09:44:47.846;6153345.0;6192552.0
09:44:47.886;6153075.0;6192183.0
09:44:47.926;6152858.0;6191795.0
09:44:47.966;6153367.0;6192470.0
09:44:48.512;6153479.0;6192110.0
09:44:48.552;6153358.0;6193093.0
09:44:48.592;6153480.0;6192719.0
09:44:48.632;6153224.0;6192077.0
09:44:48.672;6153120.0;6192356.0
09:44:48.712;6153111.0;6194212.0
09:44:48.752;6152088.0;6183422.0
09:44:48.792;6152954.0;6192334.0
09:44:48.832;6153089.0;6192229.0
09:44:48.872;6152965.0;6193432.0
09:44:48.912;6153067.0;6193634.0
09:44:48.952;6153124.0;6194095.0
09:44:48.992;6153719.0;6195298.0
09:44:49.032;6154175.0;6194715.0
09:44:49.072;6153402.0;6192929.0
09:44:49.112;6153120.0;6192294.0
09:44:49.152;6153115.0;6191907.0
09:44:49.192;6153096.0;6191911.0
09:44:49.232;6153821.0;6193379.0
09:44:49.272;6153591.0;6192811.0
09:44:49.312;6153309.0;6192315.0
09:44:49.352;6156062.0;6193353.0
09:44:49.392;6151239.0;6187629.0
09:44:49.432;6153142.0;6192754.0
09:44:49.472;6153450.0;6192907.0
09:44:49.512;6153466.0;6192242.0
09:44:49.552;6154180.0;6193143.0
09:44:49.592;6153543.0;6193955.0
09:44:49.632;6154164.0;6194204.0
09:44:49.672;6154051.0;6193053.0
09:44:49.712;6153189.0;6191433.0
09:44:49.752;6154133.0;6193085.0
09:44:49.792;6153630.0;6192896.0
09:44:49.832;6153352.0;6192740.0
09:44:49.872;6153366.0;6192264.0
09:44:49.912;6153269.0;6192073.0
09:44:49.952;6153709.0;6193244.0
09:44:49.992;6153307.0;6193408.0
09:44:50.032;6149933.0;6184606.0
09:44:50.072;6153033.0;6191277.0
09:44:50.112;6154261.0;6193261.0
09:44:50.152;6153595.0;6193462.0
09:44:50.192;6153689.0;6192954.0
09:44:50.232;6153552.0;6192969.0
09:44:50.272;6154405.0;6194448.0
09:44:50.312;6154388.0;6194610.0
09:44:50.352;6153506.0;6192724.0
09:44:50.392;6153253.0;6191905.0
09:44:50.432;6153464.0;6191830.0
09:44:50.472;6154444.0;6193210.0
09:44:50.512;6153300.0;6193045.0
09:44:50.552;6153437.0;6192452.0
09:44:50.592;6156253.0;6194463.0
09:44:50.632;6150393.0;6186563.0
09:44:50.672;6153482.0;6192618.0
09:44:50.712;6153409.0;6192341.0
09:44:50.752;6153635.0;6192478.0
09:44:50.792;6153249.0;6191951.0
09:44:50.832;6154153.0;6194199.0
09:44:50.872;6154720.0;6195109.0
09:44:50.912;6154469.0;6193648.0
09:44:50.952;6153239.0;6191452.0
09:44:50.992;6153655.0;6191552.0
09:44:51.032;6153101.0;6192052.0
09:44:51.072;6153573.0;6192244.0
09:44:51.112;6153427.0;6191693.0
09:44:51.152;6153066.0;6191234.0
09:44:51.192;6153577.0;6192592.0
09:44:51.232;6153644.0;6192569.0
09:44:51.272;6153527.0;6192212.0
09:44:51.312;6153186.0;6191415.0
09:44:51.352;6154603.0;6193150.0
09:44:51.392;6153483.0;6192781.0
09:44:51.432;6153172.0;6192332.0
09:44:51.472;6152985.0;6191421.0
09:44:51.512;6155571.0;6193329.0
09:44:51.552;6150508.0;6187587.0
09:44:51.592;6153469.0;6192817.0
09:44:51.632;6153535.0;6191944.0
09:44:51.672;6153483.0;6191476.0
09:44:51.712;6153172.0;6191896.0
09:44:51.752;6154156.0;6194112.0
09:44:51.792;6154263.0;6194424.0
09:44:51.832;6153983.0;6192375.0
09:44:51.872;6153026.0;6191013.0
09:44:51.912;6153268.0;6191542.0
09:44:51.952;6153529.0;6192908.0
09:44:51.992;6153688.0;6192370.0
09:44:52.032;6155643.0;6192459.0
09:44:52.072;6151368.0;6182632.0
09:44:52.112;6154387.0;6192988.0
09:44:52.152;6153959.0;6193148.0
09:44:52.192;6153814.0;6192600.0
09:44:52.232;6153878.0;6192977.0
09:44:52.272;6153897.0;6194034.0
09:44:52.312;6155242.0;6197111.0
09:44:52.352;6154920.0;6194749.0
09:44:52.392;6154242.0;6192026.0
09:44:52.432;6153699.0;6190899.0
09:44:52.472;6154111.0;6191635.0
09:44:54.853;6154287.0;6193244.0
09:44:54.893;6150698.0;6185047.0
09:44:54.933;6154077.0;6192226.0
09:44:54.973;6154187.0;6191527.0
09:44:55.013;6154199.0;6191356.0
09:44:55.053;6154366.0;6192016.0
09:44:55.093;6154688.0;6193841.0
09:44:55.133;6155043.0;6193480.0
09:44:55.173;6155130.0;6192218.0
09:44:55.213;6154385.0;6191233.0
09:44:55.253;6154567.0;6191524.0
09:44:55.293;6153997.0;6192218.0
09:44:55.333;6154315.0;6191863.0
09:44:55.373;6154514.0;6191169.0
09:44:55.413;6154092.0;6190937.0
09:44:55.453;6153961.0;6191851.0
09:44:55.493;6153962.0;6192105.0
09:44:55.533;6154770.0;6191470.0
09:44:55.573;6154162.0;6190972.0
09:44:55.613;6154100.0;6191910.0
09:44:55.653;6154215.0;6192134.0
09:44:55.693;6154361.0;6191891.0
09:44:55.733;6154208.0;6191184.0
09:44:55.773;6153922.0;6191657.0
09:44:55.813;6153695.0;6191568.0
09:44:55.853;6153917.0;6191430.0
09:44:55.893;6156645.0;6192896.0
09:44:55.933;6151958.0;6188433.0
09:44:55.973;6154206.0;6192114.0
09:44:56.013;6154094.0;6192094.0
09:44:56.053;6154017.0;6191049.0
09:44:56.093;6155364.0;6192712.0
09:44:56.133;6154554.0;6193238.0
09:44:56.173;6155046.0;6193310.0
09:44:56.213;6154896.0;6191566.0
09:44:56.253;6155195.0;6191828.0
09:44:56.293;6154132.0;6191984.0
09:44:56.333;6153822.0;6191295.0
09:44:56.373;6154126.0;6191092.0
09:44:56.413;6158054.0;6192242.0
09:44:56.453;6151784.0;6188135.0
09:44:56.493;6153890.0;6191270.0
09:44:56.533;6154101.0;6191361.0
09:44:56.573;6155764.0;6193599.0
09:44:56.613;6154191.0;6193493.0
09:44:56.653;6154234.0;6193795.0
09:44:56.693;6154990.0;6194380.0
09:44:56.733;6156163.0;6193622.0
09:44:56.773;6153974.0;6191789.0
09:44:56.813;6153838.0;6191584.0
09:44:56.853;6151363.0;6185074.0
09:44:56.893;6155843.0;6193410.0
09:44:56.933;6154049.0;6191935.0
09:44:56.973;6153869.0;6191071.0
09:44:57.013;6154572.0;6190917.0
09:44:57.053;6154943.0;6192029.0
09:44:57.093;6156079.0;6193580.0
09:44:57.133;6155524.0;6193604.0
09:44:57.173;6155052.0;6192210.0
09:44:57.213;6154368.0;6191068.0
09:44:57.253;6154425.0;6191136.0
09:44:57.293;6155985.0;6193038.0
09:44:57.333;6155325.0;6193115.0
09:44:57.373;6154930.0;6191986.0
09:44:57.413;6154505.0;6190686.0
09:44:57.453;6154185.0;6190659.0
09:44:57.493;6156114.0;6192345.0
09:44:57.533;6162146.0;6186309.0
09:44:57.573;6156314.0;6183728.0
09:44:57.613;6153848.0;6191282.0
09:44:57.653;6155221.0;6193347.0
09:44:57.693;6153705.0;6193571.0
09:44:57.733;6152756.0;6193824.0
09:44:57.773;6151309.0;6194313.0
09:44:57.813;6152926.0;6195909.0
09:44:57.853;6154596.0;6193873.0
09:44:57.893;6155400.0;6192154.0
09:44:57.933;6155015.0;6190771.0
09:44:57.973;6154513.0;6191497.0
09:44:58.013;6156224.0;6193577.0
09:44:58.053;6155191.0;6192779.0
09:44:58.093;6155398.0;6191253.0
09:44:58.133;6154747.0;6191137.0
09:44:58.173;6154674.0;6187680.0
09:44:58.213;6154684.0;6191300.0
09:44:58.253;6155711.0;6192222.0
09:44:58.293;6155511.0;6191683.0
09:44:58.333;6155343.0;6191762.0
09:44:58.373;6155758.0;6192999.0
09:44:58.413;6156709.0;6194152.0
09:44:58.453;6157024.0;6193681.0
09:44:58.493;6155926.0;6191894.0
09:44:58.533;6154869.0;6191723.0
09:44:58.573;6155522.0;6191705.0
09:44:58.613;6155531.0;6191963.0
09:44:58.653;6155727.0;6191347.0
09:44:58.693;6155275.0;6191956.0
09:44:58.733;6155831.0;6191839.0
09:44:58.773;6155489.0;6191532.0
09:44:58.813;6155492.0;6191061.0
09:44:59.575;6155367.0;6191617.0
09:44:59.615;6155250.0;6191303.0
09:44:59.655;6155155.0;6190944.0
09:44:59.695;6157111.0;6193084.0
09:44:59.735;6155483.0;6191897.0
09:44:59.775;6155269.0;6192284.0
09:44:59.815;6151644.0;6183538.0
09:44:59.855;6156220.0;6192085.0
09:44:59.895;6155596.0;6192210.0
09:44:59.935;6155551.0;6191521.0
09:44:59.975;6155590.0;6191875.0
09:45:00.015;6156080.0;6193479.0
09:45:00.055;6156553.0;6194104.0
09:45:00.095;6157040.0;6193384.0
09:45:00.135;6155624.0;6192071.0
09:45:00.175;6156123.0;6192803.0
09:45:00.215;6155569.0;6191813.0
09:45:00.255;6155238.0;6191010.0
09:45:00.295;6155808.0;6191990.0
09:45:00.335;6156083.0;6192725.0
09:45:00.375;6155681.0;6192124.0
09:45:00.415;6155152.0;6192049.0
09:45:00.455;6155619.0;6192154.0
09:45:00.495;6156111.0;6190538.0
09:45:00.535;6154460.0;6189713.0
09:45:00.575;6156750.0;6192980.0
09:45:00.615;6156277.0;6193182.0
09:45:00.655;6156254.0;6192964.0
09:45:00.695;6156216.0;6192638.0
09:45:00.735;6156174.0;6193993.0
09:45:00.775;6157457.0;6194767.0
09:45:00.815;6156639.0;6192958.0
09:45:00.855;6156049.0;6192540.0
09:45:00.895;6155691.0;6192328.0
09:45:00.935;6156129.0;6192440.0
09:45:00.975;6156165.0;6192535.0
09:45:01.015;6156211.0;6192677.0
09:45:01.055;6156749.0;6192583.0
09:45:01.095;6156092.0;6192752.0
09:45:01.135;6156105.0;6192508.0
09:45:01.175;6156525.0;6190289.0
09:45:01.215;6155594.0;6190690.0
09:45:01.255;6155991.0;6192669.0
09:45:01.295;6156135.0;6192584.0
09:45:01.335;6156396.0;6192721.0
09:45:01.375;6156652.0;6193104.0
09:45:01.415;6156864.0;6194592.0
09:45:01.455;6157422.0;6193971.0
09:45:01.495;6156913.0;6192973.0
09:45:01.535;6156471.0;6192480.0
09:45:01.575;6155934.0;6192678.0
09:45:01.615;6156307.0;6191818.0
09:45:01.655;6156524.0;6192706.0
09:45:01.695;6152691.0;6185695.0
09:45:01.735;6156107.0;6193263.0
09:45:01.775;6156010.0;6192545.0
09:45:01.815;6155985.0;6191796.0
09:45:01.855;6156423.0;6192970.0
09:45:01.895;6156617.0;6194285.0
09:45:01.935;6156881.0;6194446.0
09:45:01.975;6156881.0;6193039.0
09:45:02.015;6156509.0;6192267.0
09:45:02.055;6156263.0;6193140.0
09:45:02.095;6155901.0;6192221.0
09:45:02.135;6156759.0;6192533.0
09:45:02.175;6153341.0;6186230.0
09:45:02.215;6156023.0;6192875.0
09:45:02.255;6155947.0;6192250.0
09:45:02.295;6156387.0;6192166.0
09:45:02.335;6156855.0;6193097.0
09:45:02.375;6156669.0;6194316.0
09:45:02.415;6156630.0;6193550.0
09:45:02.455;6156575.0;6192612.0
09:45:02.495;6156666.0;6192596.0
09:45:02.535;6156144.0;6192614.0
09:45:02.575;6156145.0;6192320.0
09:45:02.615;6156372.0;6192732.0
09:45:02.655;6156406.0;6193233.0
09:45:02.695;6156008.0;6192360.0
09:45:02.735;6155544.0;6191405.0
09:45:02.775;6156145.0;6192250.0
09:45:02.815;6156143.0;6192866.0
09:45:02.855;6156196.0;6192494.0
09:45:02.895;6155848.0;6191438.0
09:45:02.935;6156382.0;6192387.0
09:45:02.975;6155892.0;6192379.0
09:45:03.015;6155892.0;6191881.0
09:45:03.055;6155853.0;6189784.0
09:45:03.095;6155013.0;6190367.0
09:45:03.135;6156046.0;6192544.0
09:45:03.175;6156201.0;6191936.0
09:45:03.215;6156140.0;6191881.0
09:45:03.255;6155694.0;6193118.0
09:45:03.295;6156643.0;6193561.0
09:45:03.335;6156875.0;6193403.0
09:45:03.375;6156370.0;6191814.0
09:45:03.415;6155388.0;6192215.0
09:45:03.455;6156087.0;6192327.0
09:45:03.495;6156280.0;6192185.0
09:45:03.535;6154976.0;6191837.0
09:45:03.875;6155358.0;6192314.0
09:45:03.915;6156708.0;6193164.0
09:45:03.955;6156450.0;6192559.0
09:45:03.995;6155408.0;6192087.0
09:45:04.035;6155560.0;6191923.0
09:45:04.075;6155766.0;6191585.0
09:45:04.115;6156346.0;6192177.0
09:45:04.155;6156198.0;6192722.0
09:45:04.195;6156209.0;6192797.0
09:45:04.235;6155993.0;6192121.0
09:45:04.275;6156499.0;6192072.0
09:45:04.315;6152314.0;6184094.0
09:45:04.355;6155441.0;6191426.0
09:45:04.395;6156059.0;6192627.0
09:45:04.435;6156120.0;6192749.0
09:45:04.475;6156308.0;6192460.0
09:45:04.515;6156032.0;6192793.0
09:45:04.555;6157513.0;6194869.0
09:45:04.595;6156884.0;6193824.0
09:45:04.635;6155839.0;6191996.0
09:45:04.675;6155954.0;6191793.0
09:45:04.715;6156677.0;6193152.0
09:45:04.755;6155697.0;6192075.0
09:45:04.795;6155851.0;6191764.0
09:45:04.835;6156573.0;6192619.0
09:45:04.875;6157646.0;6193726.0
09:45:04.915;6152992.0;6185213.0
09:45:04.955;6155677.0;6191360.0
09:45:04.995;6156786.0;6192714.0
09:45:05.035;6155774.0;6192701.0
09:45:05.075;6155862.0;6192739.0
09:45:05.115;6156171.0;6193005.0
09:45:05.155;6157913.0;6195347.0
09:45:05.195;6156552.0;6194106.0
09:45:05.235;6155800.0;6192079.0
09:45:05.275;6155894.0;6191571.0
09:45:05.315;6155931.0;6192477.0
09:45:05.355;6155854.0;6192295.0
09:45:05.395;6155829.0;6192223.0
09:45:05.435;6155588.0;6191437.0
09:45:05.475;6156352.0;6192985.0
09:45:05.515;6155997.0;6192010.0
09:45:05.555;6156133.0;6192216.0
09:45:05.595;6155094.0;6191461.0
09:45:05.635;6156155.0;6192346.0
09:45:05.675;6158817.0;6193421.0
09:45:05.715;6152904.0;6186289.0
09:45:05.755;6155611.0;6191804.0
09:45:05.795;6156391.0;6192596.0
09:45:05.835;6156015.0;6191835.0
09:45:05.875;6155863.0;6192197.0
09:45:05.915;6156603.0;6193089.0
09:45:05.955;6156982.0;6193594.0
09:45:05.995;6156185.0;6192345.0
09:45:06.035;6155460.0;6191382.0
09:45:06.075;6156397.0;6192162.0
09:45:06.115;6156186.0;6192080.0
09:45:06.155;6156080.0;6191722.0
09:45:06.195;6157675.0;6190669.0
09:45:06.235;6154601.0;6182687.0
09:45:06.275;6156450.0;6192898.0
09:45:06.315;6156212.0;6192567.0
09:45:06.355;6155415.0;6192327.0
09:45:06.395;6155553.0;6193996.0
09:45:06.435;6156684.0;6197062.0
09:45:06.475;6156762.0;6197795.0
09:45:06.515;6155441.0;6193523.0
09:45:06.555;6156081.0;6192791.0
09:45:06.595;6156358.0;6192882.0
09:45:06.635;6156195.0;6192173.0
09:45:06.675;6155346.0;6192436.0
09:45:06.715;6156341.0;6192899.0
09:45:06.755;6155831.0;6192217.0
09:45:06.795;6155957.0;6191718.0
09:45:06.835;6155935.0;6193228.0
09:45:06.875;6153082.0;6185558.0
09:45:06.915;6155335.0;6191786.0
09:45:06.955;6155655.0;6192286.0
09:45:06.995;6156798.0;6193052.0
09:45:07.035;6156829.0;6192856.0
09:45:07.075;6155541.0;6192299.0
09:45:07.115;6157105.0;6194501.0
09:45:07.155;6158163.0;6194631.0
09:45:07.195;6156279.0;6192161.0
09:45:07.235;6155303.0;6191328.0
09:45:07.275;6156624.0;6192485.0
09:45:07.315;6157209.0;6192863.0
09:45:07.355;6155700.0;6191709.0
09:45:07.395;6158566.0;6190027.0
09:45:07.435;6155541.0;6190567.0
09:45:07.475;6156721.0;6192399.0
09:45:07.515;6155743.0;6192271.0
09:45:07.555;6156276.0;6192448.0
09:45:07.595;6157095.0;6193547.0
09:45:07.635;6157282.0;6194334.0
09:45:07.675;6156677.0;6193988.0
09:45:07.715;6156987.0;6192888.0
09:45:07.755;6156548.0;6192274.0
09:45:07.795;6155936.0;6191792.0
09:45:07.835;6159267.0;6194665.0
09:45:08.177;6155310.0;6188145.0
09:45:08.217;6156646.0;6193152.0
09:45:08.257;6156123.0;6191703.0
09:45:08.297;6156078.0;6191205.0
09:45:08.337;6156933.0;6191867.0
09:45:08.377;6156615.0;6192684.0
09:45:08.417;6155994.0;6192411.0
09:45:08.457;6152785.0;6185247.0
09:45:08.497;6156539.0;6190953.0
09:45:08.537;6156167.0;6192100.0
09:45:08.577;6155975.0;6191964.0
09:45:08.617;6156046.0;6191783.0
09:45:08.657;6156785.0;6192349.0
09:45:08.697;6157279.0;6194113.0
09:45:08.737;6156925.0;6192873.0
09:45:08.777;6156176.0;6191303.0
09:45:08.817;6156283.0;6190806.0
09:45:08.857;6156745.0;6192285.0
09:45:08.897;6156194.0;6191842.0
09:45:08.937;6155953.0;6191295.0
09:45:08.977;6155971.0;6190910.0
09:45:09.017;6156656.0;6192385.0
09:45:09.057;6156256.0;6191748.0
09:45:09.097;6155601.0;6191889.0
09:45:09.137;6153303.0;6183607.0
09:45:09.177;6156585.0;6191181.0
09:45:09.217;6156838.0;6191743.0
09:45:09.257;6156366.0;6191228.0
09:45:09.297;6156507.0;6192095.0
09:45:09.337;6157668.0;6193063.0
09:45:09.377;6157215.0;6192731.0
09:45:09.417;6156694.0;6192209.0
09:45:09.457;6156830.0;6191777.0
09:45:09.497;6156884.0;6191477.0
09:45:09.537;6155715.0;6190811.0
09:45:09.577;6156441.0;6191384.0
09:45:09.617;6157439.0;6192610.0
09:45:09.657;6156059.0;6191577.0
09:45:09.697;6156304.0;6191396.0
09:45:09.737;6156739.0;6192001.0
09:45:09.777;6156453.0;6191400.0
09:45:09.817;6155907.0;6190973.0
09:45:09.857;6156353.0;6187525.0
09:45:09.897;6156247.0;6190702.0
09:45:09.937;6156373.0;6191760.0
09:45:09.977;6156282.0;6190823.0
09:45:10.017;6156540.0;6190806.0
09:45:10.057;6156481.0;6193066.0
09:45:10.097;6156685.0;6193028.0
09:45:10.137;6157230.0;6192498.0
09:45:10.177;6157170.0;6191248.0
09:45:10.217;6156205.0;6191770.0
09:45:10.257;6155863.0;6190990.0
09:45:10.297;6155973.0;6190149.0
09:45:10.337;6156611.0;6191152.0
09:45:10.377;6155974.0;6191258.0
09:45:10.417;6155914.0;6190878.0
09:45:10.457;6157842.0;6190493.0
09:45:10.497;6153926.0;6185548.0
09:45:10.537;6156227.0;6191667.0
09:45:10.577;6156054.0;6191146.0
09:45:10.617;6156202.0;6190923.0
09:45:10.657;6155935.0;6191755.0
09:45:10.697;6156771.0;6192894.0
09:45:10.737;6157265.0;6193044.0
09:45:10.777;6157114.0;6191814.0
09:45:10.817;6157036.0;6191062.0
09:45:10.857;6155985.0;6191779.0
09:45:10.897;6155749.0;6191036.0
09:45:10.937;6155890.0;6190648.0
09:45:10.977;6158846.0;6191668.0
09:45:11.017;6153752.0;6185661.0
09:45:11.057;6155844.0;6191010.0
09:45:11.097;6156010.0;6190873.0
09:45:11.137;6156612.0;6190848.0
09:45:11.177;6156543.0;6192114.0
09:45:11.217;6156190.0;6192453.0
09:45:11.257;6157097.0;6192265.0
09:45:11.297;6157444.0;6191800.0
09:45:11.337;6156551.0;6191409.0
09:45:11.377;6156021.0;6190911.0
09:45:11.417;6156255.0;6190494.0
09:45:11.457;6155959.0;6190852.0
09:45:11.497;6156381.0;6191336.0
09:45:11.537;6156167.0;6191121.0
09:45:11.577;6155765.0;6190480.0
09:45:11.617;6156059.0;6190887.0
09:45:11.657;6156744.0;6191665.0
09:45:11.697;6156103.0;6190906.0
09:45:11.737;6156645.0;6191343.0
09:45:11.777;6155822.0;6191485.0
09:45:11.817;6152544.0;6183761.0
09:45:11.857;6155626.0;6190569.0
09:45:11.897;6156222.0;6191281.0
09:45:11.937;6156091.0;6191503.0
09:45:11.977;6156116.0;6191193.0
09:45:12.017;6156025.0;6191818.0
09:45:12.057;6156534.0;6192658.0
09:45:12.097;6157517.0;6193296.0
09:45:12.137;6156802.0;6191678.0
09:45:13.706;6155354.0;6190485.0
09:45:13.746;6156042.0;6191237.0
09:45:13.786;6159569.0;6194600.0
09:45:13.826;6153444.0;6186848.0
09:45:13.866;6155715.0;6190756.0
09:45:13.906;6156577.0;6191598.0
09:45:13.946;6156585.0;6192874.0
09:45:13.986;6156958.0;6192598.0
09:45:14.026;6156965.0;6192525.0
09:45:14.066;6157196.0;6193613.0
09:45:14.106;6157128.0;6193395.0
09:45:14.146;6156358.0;6191698.0
09:45:14.186;6156233.0;6190899.0
09:45:14.226;6155410.0;6190295.0
09:45:14.266;6156551.0;6192929.0
09:45:14.306;6154201.0;6185311.0
09:45:14.346;6156091.0;6190794.0
09:45:14.386;6155894.0;6191426.0
09:45:14.426;6156369.0;6191949.0
09:45:14.466;6156770.0;6191641.0
09:45:14.506;6155740.0;6191112.0
09:45:14.546;6156968.0;6193090.0
09:45:14.586;6157893.0;6193706.0
09:45:14.626;6157038.0;6191697.0
09:45:14.666;6155685.0;6190422.0
09:45:14.706;6155838.0;6190855.0
09:45:14.746;6156624.0;6191456.0
09:45:14.786;6156601.0;6192071.0
09:45:14.826;6153251.0;6184529.0
09:45:14.866;6156160.0;6190729.0
09:45:14.906;6156528.0;6191287.0
09:45:14.946;6156747.0;6191503.0
09:45:14.986;6156280.0;6191647.0
09:45:15.026;6156716.0;6192737.0
09:45:15.066;6157502.0;6193434.0
09:45:15.106;6157280.0;6192209.0
09:45:15.146;6155827.0;6190610.0
09:45:15.186;6156569.0;6190960.0
09:45:15.226;6156464.0;6191075.0
09:45:15.266;6155479.0;6190527.0
09:45:15.306;6156249.0;6191215.0
09:45:15.346;6156575.0;6191139.0
09:45:15.386;6156000.0;6190189.0
09:45:15.426;6158204.0;6191207.0
09:45:15.466;6153931.0;6185245.0
09:45:15.506;6156708.0;6190875.0
09:45:15.546;6155755.0;6190416.0
09:45:15.586;6156083.0;6191062.0
09:45:15.626;6157127.0;6191730.0
09:45:15.666;6156829.0;6192077.0
09:45:15.706;6156864.0;6192577.0
09:45:15.746;6157143.0;6191741.0
09:45:15.786;6157613.0;6191594.0
09:45:15.826;6155703.0;6190296.0
09:45:15.866;6155706.0;6190036.0
09:45:15.906;6156359.0;6190988.0
09:45:15.946;6156857.0;6191202.0
09:45:15.986;6159441.0;6193081.0
09:45:16.026;6152924.0;6184889.0
09:45:16.066;6156716.0;6190790.0
09:45:16.106;6156811.0;6191104.0
09:45:16.146;6156302.0;6191114.0
09:45:16.186;6156411.0;6190881.0
09:45:16.226;6157209.0;6192012.0
09:45:16.266;6157972.0;6193475.0
09:45:16.306;6156889.0;6191383.0
09:45:16.346;6156221.0;6189979.0
09:45:16.386;6156255.0;6190705.0
09:45:16.426;6157055.0;6191429.0
09:45:16.466;6156583.0;6190573.0
09:45:16.506;6156427.0;6190194.0
09:45:16.546;6156520.0;6190766.0
09:45:16.586;6156899.0;6190978.0
09:45:16.626;6156005.0;6190345.0
09:45:16.666;6156562.0;6190659.0
09:45:16.706;6156657.0;6192066.0
09:45:16.746;6153928.0;6184550.0
09:45:16.786;6156369.0;6189576.0
09:45:16.826;6155800.0;6190079.0
09:45:16.866;6157195.0;6191567.0
09:45:16.906;6157303.0;6191302.0
09:45:16.946;6157327.0;6191357.0
09:45:16.986;6156841.0;6191868.0
09:45:17.026;6157921.0;6192723.0
09:45:17.066;6157037.0;6190808.0
09:45:17.106;6156520.0;6189942.0
09:45:17.146;6155920.0;6190267.0
09:45:17.186;6157032.0;6191292.0
09:45:17.226;6156899.0;6191146.0
09:45:17.266;6156202.0;6189985.0
09:45:17.306;6156645.0;6191168.0
09:45:17.346;6157037.0;6190955.0
09:45:17.386;6156684.0;6190475.0
09:45:17.426;6156282.0;6189586.0
09:45:17.466;6156406.0;6190827.0
09:45:17.506;6156743.0;6191087.0
09:45:17.546;6157439.0;6190686.0
09:45:17.586;6153484.0;6183284.0
09:45:17.626;6156337.0;6190186.0
09:45:17.666;6156457.0;6190385.0
09:45:19.229;6156766.0;6190568.0
09:45:19.269;6159308.0;6192317.0
09:45:19.309;6152978.0;6183617.0
09:45:19.349;6156904.0;6190499.0
09:45:19.389;6157137.0;6191439.0
09:45:19.429;6156304.0;6190557.0
09:45:19.469;6156085.0;6190628.0
09:45:19.509;6157933.0;6192293.0
09:45:19.549;6158057.0;6193231.0
09:45:19.589;6156993.0;6191468.0
09:45:19.629;6156293.0;6189980.0
09:45:19.669;6157527.0;6190848.0
09:45:19.709;6156695.0;6190723.0
09:45:19.749;6156179.0;6190104.0
09:45:19.789;6155856.0;6189748.0
09:45:19.829;6156945.0;6190920.0
09:45:19.869;6159924.0;6193169.0
09:45:19.909;6155108.0;6186947.0
09:45:19.949;6156370.0;6189847.0
09:45:19.989;6157261.0;6190823.0
09:45:20.029;6157353.0;6191978.0
09:45:20.069;6156850.0;6191261.0
09:45:20.109;6156998.0;6191489.0
09:45:20.149;6158053.0;6192611.0
09:45:20.189;6158557.0;6192551.0
09:45:20.229;6156675.0;6190710.0
09:45:20.269;6156197.0;6189733.0
09:45:20.309;6156689.0;6189529.0
09:45:20.349;6158583.0;6192390.0
09:45:20.389;6153459.0;6183896.0
09:45:20.429;6156278.0;6189578.0
09:45:20.469;6156328.0;6189346.0
09:45:20.509;6157712.0;6191052.0
09:45:20.549;6156803.0;6191820.0
09:45:20.589;6157163.0;6191187.0
09:45:20.629;6157582.0;6191457.0
09:45:20.669;6157385.0;6190635.0
09:45:20.709;6157292.0;6191426.0
09:45:20.749;6156924.0;6190782.0
09:45:20.789;6156578.0;6189682.0
09:45:20.829;6156833.0;6189858.0
09:45:20.869;6156791.0;6189900.0
09:45:20.909;6156931.0;6191843.0
09:45:20.949;6156790.0;6190729.0
09:45:20.989;6159772.0;6191774.0
09:45:21.029;6153979.0;6184909.0
09:45:21.069;6156441.0;6189183.0
09:45:21.109;6156540.0;6191085.0
09:45:21.149;6156809.0;6190604.0
09:45:21.189;6157003.0;6190334.0
09:45:21.229;6157275.0;6190871.0
09:45:21.269;6157890.0;6192544.0
09:45:21.309;6157309.0;6190841.0
09:45:21.349;6156708.0;6189587.0
09:45:21.389;6156463.0;6189021.0
09:45:21.429;6157101.0;6190273.0
09:45:21.469;6154085.0;6184413.0
09:45:21.509;6156550.0;6189645.0
09:45:21.549;6156726.0;6189049.0
09:45:21.589;6156631.0;6189611.0
09:45:21.629;6156461.0;6190452.0
09:45:21.669;6156964.0;6190844.0
09:45:21.709;6157637.0;6191268.0
09:45:21.749;6157446.0;6190810.0
09:45:21.789;6156401.0;6190496.0
09:45:21.829;6156532.0;6190070.0
09:45:21.869;6159706.0;6191629.0
09:45:21.909;6155520.0;6187336.0
09:45:21.949;6156245.0;6190006.0
09:45:21.989;6156500.0;6190038.0
09:45:22.029;6156640.0;6190202.0
09:45:22.069;6157129.0;6190404.0
09:45:22.109;6156991.0;6191279.0
09:45:22.149;6157235.0;6191042.0
09:45:22.189;6156727.0;6190037.0
09:45:22.229;6156139.0;6189565.0
09:45:22.269;6156807.0;6190340.0
09:45:22.309;6156874.0;6190081.0
09:45:22.349;6158511.0;6189400.0
09:45:22.389;6153261.0;6182721.0
09:45:22.429;6156405.0;6189968.0
09:45:22.469;6156683.0;6190259.0
09:45:22.509;6156894.0;6190443.0
09:45:22.549;6156061.0;6190339.0
09:45:22.589;6156719.0;6191365.0
09:45:22.629;6157244.0;6191536.0
09:45:22.669;6156915.0;6190504.0
09:45:22.709;6156039.0;6190122.0
09:45:22.749;6156348.0;6190139.0
09:45:22.789;6157106.0;6190308.0
09:45:22.829;6153484.0;6183279.0
09:45:22.869;6156184.0;6190054.0
09:45:22.909;6156312.0;6190122.0
09:45:22.949;6156365.0;6189699.0
09:45:22.989;6155593.0;6189776.0
09:45:23.029;6157037.0;6191647.0
09:45:23.069;6157471.0;6192399.0
09:45:23.109;6157323.0;6190695.0
09:45:23.149;6155970.0;6189583.0
09:45:23.189;6156654.0;6189883.0
09:45:23.529;6156785.0;6190218.0
09:45:23.569;6157645.0;6190681.0
09:45:23.609;6158074.0;6190975.0
09:45:23.649;6157449.0;6189750.0
09:45:23.689;6156957.0;6188988.0
09:45:23.729;6156581.0;6189667.0
09:45:23.769;6157024.0;6189463.0
09:45:23.809;6156887.0;6188856.0
09:45:23.849;6157152.0;6189083.0
09:45:23.889;6156700.0;6189736.0
09:45:23.929;6156529.0;6189254.0
09:45:23.969;6156284.0;6188785.0
09:45:24.009;6156146.0;6189693.0
09:45:24.049;6154137.0;6184650.0
09:45:24.089;6156054.0;6188315.0
09:45:24.129;6156374.0;6189283.0
09:45:24.169;6156019.0;6189627.0
09:45:24.209;6156546.0;6190096.0
09:45:24.249;6156847.0;6190382.0
09:45:24.289;6156481.0;6190940.0
09:45:24.329;6157720.0;6191696.0
09:45:24.369;6156966.0;6189973.0
09:45:24.409;6155797.0;6189073.0
09:45:24.449;6155514.0;6188920.0
09:45:24.489;6156996.0;6190108.0
09:45:24.529;6160387.0;6192415.0
09:45:24.569;6154192.0;6185999.0
09:45:24.609;6155524.0;6189025.0
09:45:24.649;6156727.0;6190112.0
09:45:24.689;6156936.0;6189843.0
09:45:24.729;6156390.0;6190258.0
09:45:24.769;6156640.0;6190797.0
09:45:24.809;6158027.0;6191888.0
09:45:24.849;6157077.0;6189698.0
09:45:24.889;6155806.0;6189201.0
09:45:24.929;6156323.0;6189061.0
09:45:24.969;6157554.0;6190284.0
09:45:25.009;6156834.0;6189627.0
09:45:25.049;6155884.0;6189253.0
09:45:25.089;6155853.0;6189365.0
09:45:25.129;6157496.0;6190199.0
09:45:25.169;6156367.0;6189529.0
09:45:25.209;6158598.0;6190287.0
09:45:25.249;6153351.0;6183057.0
09:45:25.289;6156922.0;6189873.0
09:45:25.329;6156105.0;6189253.0
09:45:25.369;6156079.0;6189121.0
09:45:25.409;6156854.0;6190292.0
09:45:25.449;6157048.0;6191142.0
09:45:25.489;6157210.0;6191062.0
09:45:25.529;6157266.0;6189522.0
09:45:25.569;6156737.0;6189904.0
09:45:25.609;6156361.0;6189373.0
09:45:25.649;6156118.0;6188642.0
09:45:25.689;6156523.0;6188955.0
09:45:25.729;6158439.0;6183684.0
09:45:25.769;6155469.0;6188670.0
09:45:25.809;6155653.0;6189110.0
09:45:25.849;6156361.0;6189494.0
09:45:25.889;6157869.0;6191346.0
09:45:25.929;6156130.0;6191208.0
09:45:25.969;6156239.0;6192387.0
09:45:26.009;6156526.0;6190420.0
09:45:26.049;6157383.0;6189690.0
09:45:26.089;6156412.0;6189658.0
09:45:26.129;6156154.0;6189435.0
09:45:26.169;6155624.0;6188787.0
09:45:26.209;6156754.0;6189035.0
09:45:26.249;6156684.0;6189569.0
09:45:26.289;6156134.0;6189575.0
09:45:26.329;6155960.0;6188624.0
09:45:26.369;6156060.0;6188436.0
09:45:26.409;6156899.0;6189885.0
09:45:26.449;6159076.0;6191469.0
09:45:26.489;6153986.0;6184885.0
09:45:26.529;6156362.0;6188070.0
09:45:26.569;6156461.0;6188616.0
09:45:26.609;6157054.0;6190370.0
09:45:26.649;6156265.0;6189963.0
09:45:26.689;6156340.0;6189921.0
09:45:26.729;6156744.0;6189527.0
09:45:26.769;6157443.0;6189531.0
09:45:26.809;6156076.0;6189348.0
09:45:26.849;6155715.0;6188707.0
09:45:26.889;6156081.0;6188426.0
09:45:26.929;6156875.0;6189048.0
09:45:26.969;6157005.0;6190078.0
09:45:27.009;6153297.0;6181245.0
09:45:27.049;6155913.0;6188640.0
09:45:27.089;6156425.0;6188772.0
09:45:27.129;6156373.0;6189781.0
09:45:27.169;6156413.0;6190204.0
09:45:27.209;6156615.0;6190573.0
09:45:27.249;6157017.0;6191300.0
09:45:27.289;6156935.0;6190988.0
09:45:27.329;6156316.0;6189553.0
09:45:27.369;6155988.0;6188816.0
09:45:27.409;6156275.0;6189289.0
09:45:27.449;6157561.0;6189785.0
09:45:27.489;6155792.0;6189472.0
09:45:27.830;6155151.0;6188498.0
09:45:27.870;6155825.0;6189303.0
09:45:27.910;6156125.0;6190168.0
09:45:27.950;6156436.0;6190098.0
09:45:27.990;6156488.0;6190225.0
09:45:28.030;6157376.0;6191355.0
09:45:28.070;6157393.0;6191680.0
09:45:28.110;6156494.0;6190223.0
09:45:28.150;6156178.0;6188962.0
09:45:28.190;6156771.0;6189365.0
09:45:28.230;6155995.0;6189253.0
09:45:28.270;6155802.0;6189609.0
09:45:28.310;6156298.0;6189818.0
09:45:28.350;6159315.0;6192066.0
09:45:28.390;6154662.0;6186710.0
09:45:28.430;6155742.0;6189516.0
09:45:28.470;6155642.0;6189230.0
09:45:28.510;6156660.0;6190325.0
09:45:28.550;6156847.0;6190656.0
09:45:28.590;6156930.0;6191621.0
09:45:28.630;6156406.0;6191795.0
09:45:28.670;6156902.0;6190618.0
09:45:28.710;6156622.0;6189925.0
09:45:28.750;6156482.0;6189286.0
09:45:28.790;6155827.0;6189214.0
09:45:28.830;6156798.0;6189814.0
09:45:28.870;6155995.0;6189220.0
09:45:28.910;6156131.0;6189191.0
09:45:28.950;6158449.0;6188597.0
09:45:28.990;6155740.0;6187031.0
09:45:29.030;6155761.0;6189101.0
09:45:29.070;6156141.0;6189315.0
09:45:29.110;6157423.0;6190317.0
09:45:29.150;6156727.0;6190208.0
09:45:29.190;6156739.0;6190883.0
09:45:29.230;6157737.0;6191206.0
09:45:29.270;6156696.0;6189970.0
09:45:29.310;6156385.0;6189129.0
09:45:29.350;6156243.0;6189040.0
09:45:29.390;6157119.0;6189840.0
09:45:29.430;6160501.0;6175271.0
09:45:29.470;6157506.0;6184913.0
09:45:29.510;6156542.0;6189441.0
09:45:29.550;6155778.0;6191046.0
09:45:29.590;6154988.0;6191432.0
09:45:29.630;6154516.0;6193345.0
09:45:29.670;6154530.0;6195923.0
09:45:29.710;6155120.0;6194403.0
09:45:29.750;6156092.0;6190049.0
09:45:29.790;6156157.0;6189026.0
09:45:29.830;6156193.0;6189345.0
09:45:29.870;6156828.0;6190519.0
09:45:29.910;6156405.0;6189624.0
09:45:29.950;6156271.0;6188597.0
09:45:29.990;6156075.0;6188364.0
09:45:30.030;6158113.0;6190458.0
09:45:30.070;6156122.0;6189475.0
09:45:30.110;6155848.0;6188635.0
09:45:30.150;6157545.0;6188127.0
09:45:30.190;6153886.0;6182652.0
09:45:30.230;6157002.0;6190030.0
09:45:30.270;6155730.0;6188762.0
09:45:30.310;6155859.0;6188263.0
09:45:30.350;6157315.0;6189607.0
09:45:30.390;6156426.0;6190797.0
09:45:30.430;6156659.0;6190084.0
09:45:30.470;6157012.0;6189142.0
09:45:30.510;6157072.0;6189083.0
09:45:30.550;6155948.0;6189252.0
09:45:30.590;6155748.0;6188748.0
09:45:30.630;6156421.0;6188691.0
09:45:30.670;6157572.0;6189445.0
09:45:30.710;6156151.0;6190418.0
09:45:30.750;6152542.0;6181716.0
09:45:30.790;6156106.0;6188580.0
09:45:30.830;6157466.0;6189995.0
09:45:30.870;6155851.0;6189484.0
09:45:30.910;6155784.0;6189299.0
09:45:30.950;6156520.0;6189665.0
09:45:30.990;6158377.0;6192111.0
09:45:31.030;6157128.0;6191227.0
09:45:31.070;6156312.0;6189725.0
09:45:31.110;6156003.0;6188651.0
09:45:31.150;6156526.0;6189370.0
09:45:31.190;6156327.0;6189722.0
09:45:31.230;6156219.0;6189914.0
09:45:31.270;6153152.0;6182556.0
09:45:31.310;6155628.0;6189221.0
09:45:31.350;6156408.0;6189565.0
09:45:31.390;6156334.0;6189044.0
09:45:31.430;6156993.0;6189656.0
09:45:31.470;6156609.0;6190433.0
09:45:31.510;6157111.0;6191335.0
09:45:31.550;6157550.0;6190335.0
09:45:31.590;6156360.0;6189507.0
09:45:31.630;6156979.0;6189549.0
09:45:31.670;6156874.0;6189574.0
09:45:31.710;6155466.0;6188221.0
09:45:31.750;6156482.0;6189438.0
09:45:31.790;6157032.0;6189538.0
09:45:32.345;6157318.0;6189690.0
09:45:32.385;6157855.0;6191575.0
09:45:32.425;6157462.0;6190155.0
09:45:32.465;6156616.0;6189256.0
09:45:32.505;6157035.0;6188938.0
09:45:32.545;6156762.0;6189135.0
09:45:32.585;6156607.0;6189585.0
09:45:32.625;6156493.0;6188670.0
09:45:32.665;6157238.0;6189373.0
09:45:32.705;6158094.0;6189809.0
09:45:32.745;6154118.0;6182549.0
09:45:32.785;6156723.0;6188784.0
09:45:32.825;6156032.0;6188750.0
09:45:32.865;6156476.0;6189350.0
09:45:32.905;6157225.0;6190377.0
09:45:32.945;6157596.0;6190713.0
09:45:32.985;6157091.0;6191123.0
09:45:33.025;6157748.0;6190184.0
09:45:33.065;6157407.0;6189510.0
09:45:33.105;6156327.0;6188904.0
09:45:33.145;6156631.0;6188475.0
09:45:33.185;6156543.0;6188797.0
09:45:33.225;6155883.0;6188975.0
09:45:33.265;6156803.0;6189621.0
09:45:33.305;6156936.0;6188857.0
09:45:33.345;6156492.0;6188719.0
09:45:33.385;6156917.0;6189135.0
09:45:33.425;6156421.0;6189084.0
09:45:33.465;6156783.0;6188315.0
09:45:33.505;6158398.0;6188175.0
09:45:33.545;6153190.0;6182188.0
09:45:33.585;6156672.0;6188846.0
09:45:33.625;6157089.0;6189160.0
09:45:33.665;6157022.0;6188955.0
09:45:33.705;6155998.0;6189338.0
