Time;Ecg1;Ecg2
10:53:16.713;2242550.0;2396247.0
10:53:16.753;3077031.0;3354715.0
10:53:16.793;3540670.0;3618432.0
10:53:16.833;3354821.0;3556219.0
10:53:16.873;3102914.0;3350381.0
10:53:16.913;2826185.0;3090609.0
10:53:16.953;2569551.0;2819031.0
10:53:16.993;2550444.0;2555728.0
10:53:17.033;2183210.0;2309308.0
10:53:17.073;1962061.0;2083104.0
10:53:17.113;1714177.0;1877492.0
10:53:17.153;1545196.0;1691272.0
10:53:17.193;1591906.0;1522377.0
10:53:17.233;1349582.0;1370226.0
10:53:17.273;1150680.0;1233425.0
10:53:17.313;1022242.0;1110385.0
10:53:17.353;894822.0;999276.0
10:53:17.393;998774.0;899052.0
10:53:17.433;761768.0;809178.0
10:53:17.473;655954.0;728389.0
10:53:17.513;514701.0;655758.0
10:53:17.553;493797.0;589987.0
10:53:17.593;647052.0;530716.0
10:53:17.633;459567.0;478126.0
10:53:17.673;385626.0;430649.0
10:53:17.713;340320.0;387556.0
10:53:17.753;292593.0;348383.0
10:53:17.793;450253.0;313566.0
10:53:17.833;290151.0;282524.0
10:53:17.873;243716.0;254590.0
10:53:17.913;218736.0;228675.0
10:53:17.953;119455.0;205709.0
10:53:17.993;304880.0;185202.0
10:53:18.033;162501.0;166765.0
10:53:18.073;78231.0;149970.0
10:53:18.113;73148.0;136453.0
10:53:18.153;-105319.0;122275.0
10:53:18.193;179408.0;109849.0
10:53:18.233;87779.0;98600.0
10:53:18.273;18946.0;88757.0
10:53:18.313;19656.0;79997.0
10:53:18.353;6252.0;71668.0
10:53:18.393;213933.0;64291.0
10:53:18.433;57663.0;58046.0
10:53:18.473;7190.0;52330.0
10:53:18.513;-576670.0;47018.0
10:53:18.553;-278316.0;42337.0
10:53:18.593;113491.0;38250.0
10:53:18.633;51713.0;34388.0
10:53:18.673;28645.0;30798.0
10:53:18.713;61070.0;27803.0
10:53:18.753;66933.0;25285.0
10:53:18.793;254043.0;22655.0
10:53:18.833;140671.0;20215.0
10:53:18.873;46053.0;18402.0
10:53:18.913;41948.0;16615.0
10:53:18.953;3919.0;14961.0
10:53:18.993;197578.0;14344.0
10:53:19.033;93898.0;12755.0
10:53:19.073;36864.0;11380.0
10:53:19.113;7106.0;10283.0
10:53:19.153;-37507.0;9012.0
10:53:19.193;157397.0;8215.0
10:53:19.233;68813.0;7579.0
10:53:19.273;-23300.0;6524.0
10:53:19.313;-49998.0;5515.0
10:53:19.353;154553.0;5188.0
10:53:19.393;177427.0;4895.0
10:53:19.433;31610.0;4410.0
10:53:19.473;-54055.0;3546.0
10:53:19.513;-95332.0;3021.0
10:53:19.553;-114480.0;2895.0
10:53:19.593;114424.0;2741.0
10:53:19.633;45190.0;2685.0
10:53:19.673;1996.0;2260.0
10:53:19.713;-64094.0;2430.0
10:53:19.753;-92765.0;2558.0
10:53:19.793;-282654.0;2277.0
10:53:19.833;-166115.0;1886.0
10:53:19.873;-106599.0;1330.0
10:53:19.913;-87076.0;1189.0
10:53:19.953;-64486.0;1576.0
10:53:19.993;-11195.0;1380.0
10:53:20.033;-44696.0;851.0
10:53:20.073;-35663.0;605.0
10:53:20.113;193701.0;690.0
10:53:20.153;289238.0;1050.0
10:53:20.193;298480.0;862.0
10:53:20.233;77020.0;659.0
10:53:20.273;-24886.0;709.0
10:53:20.313;-78647.0;981.0
10:53:20.353;-68157.0;868.0
10:53:20.393;-386246.0;338.0
10:53:20.433;-104216.0;157.0
10:53:20.473;-63388.0;465.0
10:53:20.513;-20529.0;813.0
10:53:20.553;-32171.0;762.0
10:53:20.593;-52237.0;780.0
10:53:20.633;-2241.0;815.0
10:53:20.673;-947.0;832.0
10:53:40.216;166691.0;284.0
10:53:40.256;42743.0;282.0
10:53:40.296;167387.0;-6.0
10:53:40.336;-16607.0;-180.0
10:53:40.376;-60832.0;3.0
10:53:40.416;-94713.0;256.0
10:53:40.456;-87003.0;806.0
10:53:40.496;113625.0;709.0
10:53:40.536;16660.0;578.0
10:53:40.576;-310427.0;623.0
10:53:40.616;-160602.0;140.0
10:53:40.656;-141406.0;167.0
10:53:40.696;113227.0;-9.0
10:53:40.736;46150.0;-158.0
10:53:40.776;10900.0;-165.0
10:53:40.816;-31182.0;-155.0
10:53:40.856;-79118.0;-601.0
10:53:40.896;138277.0;-192.0
10:53:40.936;-531500.0;-130.0
10:53:40.976;-221606.0;-18.0
10:53:41.016;81189.0;287.0
10:53:41.056;237093.0;279.0
10:53:41.096;295871.0;-223.0
10:53:41.136;125576.0;-435.0
10:53:41.176;33797.0;-35.0
10:53:41.216;-4713.0;334.0
10:53:41.256;-53958.0;87.0
10:53:41.296;144599.0;-194.0
10:53:41.336;38199.0;-158.0
10:53:41.376;-73402.0;77.0
10:53:41.416;-65793.0;-152.0
10:53:41.456;-93401.0;-353.0
10:53:41.496;129331.0;-487.0
10:53:41.536;9925.0;-435.0
10:53:41.576;-33049.0;-321.0
10:53:41.616;-45048.0;-884.0
10:53:41.656;-27042.0;-453.0
10:53:41.696;153024.0;-195.0
10:53:41.736;-498162.0;-95.0
10:53:41.776;-268729.0;-72.0
10:53:41.816;-140881.0;148.0
10:53:41.856;-94585.0;-90.0
10:53:41.896;169561.0;-153.0
10:53:41.936;64104.0;95.0
10:53:41.976;-13412.0;-21.0
10:53:42.016;-19399.0;98.0
10:53:42.056;-26317.0;71.0
10:53:42.096;191554.0;142.0
10:53:42.136;44902.0;15.0
10:53:42.176;14795.0;12.0
10:53:42.216;-40015.0;110.0
10:53:42.256;-56340.0;-143.0
10:53:42.296;167849.0;-108.0
10:53:42.336;66433.0;43.0
10:53:42.376;7768.0;142.0
10:53:42.416;-32703.0;115.0
10:53:42.456;-25460.0;31.0
10:53:42.496;174994.0;180.0
10:53:42.536;63664.0;134.0
10:53:42.576;53552.0;210.0
10:53:42.616;-17868.0;399.0
10:53:42.656;-256618.0;396.0
10:53:42.696;5631.0;256.0
10:53:42.736;2192.0;173.0
10:53:42.776;-31184.0;186.0
10:53:42.816;-65348.0;93.0
10:53:42.856;124615.0;-93.0
10:53:42.896;43904.0;-196.0
10:53:42.936;-25115.0;-134.0
10:53:42.976;-33969.0;410.0
10:53:43.016;-25729.0;179.0
10:53:43.056;-34306.0;-14.0
10:53:43.096;-196948.0;16.0
10:53:43.136;-120864.0;421.0
10:53:43.176;-104916.0;267.0
10:53:43.216;-38283.0;66.0
10:53:43.256;-59069.0;-164.0
10:53:43.296;-462944.0;116.0
10:53:43.336;-170584.0;114.0
10:53:43.376;-30020.0;121.0
10:53:43.416;12210.0;222.0
10:53:43.456;43243.0;218.0
10:53:43.496;-464591.0;37.0
10:53:43.536;-453907.0;68.0
10:53:43.576;-150348.0;225.0
10:53:43.616;-461.0;250.0
10:53:43.656;140957.0;213.0
10:53:43.696;-453559.0;537.0
10:53:43.736;-99415.0;815.0
10:53:43.776;67841.0;400.0
10:53:43.816;130452.0;141.0
10:53:43.856;151495.0;159.0
10:53:43.896;-382232.0;432.0
10:53:43.936;-619113.0;659.0
10:53:43.976;-156050.0;1.0
10:53:44.016;76096.0;-144.0
10:53:44.056;388286.0;91.0
10:53:44.096;-574390.0;67.0
10:53:44.136;105316.0;102.0
10:53:44.176;405860.0;27.0
10:53:47.100;289974.0;-15.0
10:53:47.140;370871.0;8.0
10:53:47.180;269903.0;214.0
10:53:47.220;189636.0;320.0
10:53:47.260;135836.0;928.0
10:53:47.300;146495.0;712.0
10:53:47.340;334137.0;644.0
10:53:47.380;175491.0;536.0
10:53:47.420;90154.0;494.0
10:53:47.460;76700.0;537.0
10:53:47.500;71687.0;798.0
10:53:47.540;20064.0;468.0
10:53:47.580;8480.0;138.0
10:53:47.620;65172.0;205.0
10:53:47.660;53795.0;451.0
10:53:47.700;9995.0;458.0
10:53:47.740;43402.0;293.0
10:53:47.780;41858.0;206.0
10:53:47.820;5293.0;240.0
10:53:47.860;40008.0;938.0
10:53:47.900;13486.0;756.0
10:53:47.940;221787.0;449.0
10:53:47.980;65029.0;401.0
10:53:48.020;-9953.0;436.0
10:53:48.060;-16675.0;462.0
10:53:48.100;-11013.0;169.0
10:53:48.140;198309.0;-169.0
10:53:48.180;72471.0;60.0
10:53:48.220;-20624.0;-154.0
10:53:48.260;-47536.0;-16.0
10:53:48.300;-35142.0;46.0
10:53:48.340;179083.0;800.0
10:53:48.380;53557.0;318.0
10:53:48.420;-7815.0;169.0
10:53:48.460;-23682.0;80.0
10:53:48.500;-21774.0;40.0
10:53:48.540;176130.0;58.0
10:53:48.580;68298.0;-61.0
10:53:48.620;-27656.0;-146.0
10:53:48.660;162651.0;-182.0
10:53:48.700;35496.0;-103.0
10:53:48.740;181154.0;1.0
10:53:48.780;-189279.0;21.0
10:53:48.820;-331350.0;65.0
10:53:48.860;-217996.0;99.0
10:53:48.900;-131906.0;-77.0
10:53:48.940;140299.0;564.0
10:53:48.980;13433.0;158.0
10:53:49.020;-41363.0;-30.0
10:53:49.060;-67406.0;225.0
10:53:49.100;-78879.0;312.0
10:53:49.140;165869.0;160.0
10:53:49.180;28270.0;9.0
10:53:49.220;-42981.0;-99.0
10:53:49.260;-21129.0;-278.0
10:53:49.300;-40642.0;-176.0
10:53:49.340;178607.0;-254.0
10:53:49.380;30667.0;-220.0
10:53:49.420;3685.0;-131.0
10:53:49.460;-28550.0;-74.0
10:53:49.500;510.0;-403.0
10:53:49.540;187876.0;-544.0
10:53:49.580;262793.0;-318.0
10:53:49.620;-100062.0;-93.0
10:53:49.660;69024.0;-18.0
10:53:49.700;197719.0;-17.0
10:53:49.740;245734.0;-34.0
10:53:49.780;34796.0;387.0
10:53:49.820;-39189.0;405.0
10:53:49.860;-71480.0;507.0
10:53:49.900;-78342.0;528.0
10:53:49.940;116928.0;528.0
10:53:49.980;-22160.0;520.0
10:53:50.020;-117805.0;642.0
10:53:50.060;-152779.0;221.0
10:53:50.100;-167501.0;194.0
10:53:50.140;93991.0;61.0
10:53:50.180;-12148.0;187.0
10:53:50.220;-39439.0;332.0
10:53:50.260;-60531.0;84.0
10:53:50.300;-42289.0;-164.0
10:53:50.340;153354.0;-117.0
10:53:50.380;-2079.0;-97.0
10:53:50.420;-49531.0;624.0
10:53:50.460;-80414.0;520.0
10:53:50.500;-28151.0;258.0
10:53:50.540;160046.0;239.0
10:53:50.580;12483.0;212.0
10:53:50.620;-14686.0;267.0
10:53:50.660;-87032.0;394.0
10:53:50.700;-53311.0;169.0
10:53:50.740;146740.0;-99.0
10:53:50.780;-13828.0;-46.0
10:53:50.820;-72854.0;18.0
10:53:50.860;-52048.0;110.0
10:53:50.900;-86028.0;149.0
10:53:50.940;-141288.0;105.0
10:53:50.980;-453.0;254.0
10:53:51.020;-35397.0;239.0
10:53:51.060;168288.0;386.0
10:53:51.183;-353773.0;612.0
10:53:51.223;-153902.0;539.0
10:53:51.263;-84659.0;417.0
10:53:51.303;3342.0;322.0
10:53:51.343;-31662.0;270.0
10:53:51.383;-23746.0;299.0
10:53:51.423;-20379.0;246.0
10:53:51.463;-18924.0;348.0
10:53:51.503;-454763.0;264.0
10:53:51.543;-197568.0;264.0
10:53:51.583;-87800.0;498.0
10:53:51.623;-13119.0;495.0
10:53:51.663;42961.0;423.0
10:53:51.703;27243.0;450.0
10:53:51.743;45134.0;468.0
10:53:51.783;49632.0;679.0
10:53:51.823;51930.0;845.0
10:53:51.863;52486.0;670.0
10:53:51.903;34083.0;497.0
10:53:51.943;60745.0;60.0
10:53:51.983;65612.0;190.0
10:53:52.023;70305.0;342.0
10:53:52.063;59433.0;479.0
10:53:52.103;115069.0;262.0
10:53:52.143;216851.0;392.0
10:53:52.183;55641.0;376.0
10:53:52.223;13969.0;400.0
10:53:52.263;-11820.0;1653.0
10:53:52.303;195278.0;948.0
10:53:52.343;40739.0;702.0
10:53:52.383;207101.0;475.0
10:53:52.423;271627.0;382.0
10:53:52.463;74589.0;641.0
10:53:52.503;171332.0;742.0
10:53:52.543;229668.0;392.0
10:53:52.583;23043.0;-4.0
10:53:52.623;-79289.0;-155.0
10:53:52.663;-118586.0;161.0
10:53:52.703;63938.0;225.0
10:53:52.743;-25005.0;386.0
10:53:52.783;3622.0;287.0
10:53:52.823;-86625.0;337.0
10:53:52.863;-78024.0;271.0
10:53:52.903;-97871.0;264.0
10:53:52.943;-68075.0;349.0
10:53:52.983;-56684.0;67.0
10:53:53.023;-96647.0;-15.0
10:53:53.063;-81650.0;54.0
10:53:53.103;137459.0;102.0
10:53:53.143;52279.0;-657.0
10:53:53.183;-20028.0;-382.0
10:53:53.223;-53897.0;-65.0
10:53:53.263;-75027.0;-1.0
10:53:53.303;138042.0;60.0
10:53:53.343;-163.0;218.0
10:53:53.383;-38848.0;138.0
10:53:53.423;-96164.0;77.0
10:53:53.463;-70961.0;-18.0
10:53:53.503;145401.0;91.0
10:53:53.543;33322.0;26.0
10:53:53.583;-12495.0;160.0
10:53:53.623;-80020.0;69.0
10:53:53.663;-100644.0;45.0
10:53:53.703;132774.0;115.0
10:53:53.743;37263.0;-32.0
10:53:53.783;-46542.0;-122.0
10:53:53.823;-78682.0;-91.0
10:53:53.863;-103016.0;113.0
10:53:53.903;134603.0;181.0
10:53:53.943;8326.0;49.0
10:53:53.983;-39593.0;12.0
10:53:54.023;-68687.0;293.0
10:53:54.063;-36236.0;-258.0
10:53:54.103;164736.0;207.0
10:53:54.143;67298.0;69.0
10:53:54.183;-18147.0;277.0
10:53:54.223;-77149.0;449.0
10:53:54.263;-104512.0;558.0
10:53:54.303;132402.0;531.0
10:53:54.343;25057.0;103.0
10:53:54.383;-12533.0;135.0
10:53:54.423;-352049.0;-38.0
10:53:54.463;31371.0;25.0
10:53:54.503;-260034.0;465.0
10:53:54.543;-391762.0;-299.0
10:53:54.583;-154988.0;-126.0
10:53:54.623;-96023.0;-155.0
10:53:54.663;-20229.0;-185.0
10:53:54.703;225277.0;-629.0
10:53:54.743;68520.0;-462.0
10:53:54.783;21961.0;23.0
10:53:54.823;23071.0;139.0
10:53:54.863;-13710.0;382.0
10:53:54.903;211952.0;326.0
10:53:54.943;73643.0;727.0
10:53:54.983;-16363.0;883.0
10:53:55.023;-6089.0;625.0
10:53:55.063;-51379.0;789.0
10:53:55.103;184411.0;1026.0
10:53:55.143;79458.0;757.0
10:53:51.731;28874.0;15.0
10:53:51.771;205387.0;374.0
10:53:51.811;52837.0;450.0
10:53:51.851;-15022.0;353.0
10:53:51.891;-63017.0;167.0
10:53:51.931;-90115.0;293.0
10:53:51.971;108686.0;90.0
10:53:52.011;19525.0;-318.0
10:53:52.051;-56523.0;-181.0
10:53:52.091;-89392.0;-132.0
10:53:52.131;-64389.0;-100.0
10:53:52.171;143569.0;-206.0
10:53:52.211;11927.0;-139.0
10:53:52.251;-47933.0;-90.0
10:53:52.291;-43967.0;130.0
10:53:52.331;51836.0;239.0
10:53:52.371;-267051.0;-53.0
10:53:52.411;-138059.0;-163.0
10:53:52.451;-26625.0;-9.0
10:53:52.491;-76888.0;920.0
10:53:52.531;-65634.0;700.0
10:53:52.571;-524907.0;158.0
10:53:52.611;-3425.0;178.0
10:53:52.651;224764.0;509.0
10:53:52.691;123997.0;694.0
10:53:52.731;72246.0;540.0
10:53:52.771;-469882.0;46.0
10:53:52.811;-214646.0;80.0
10:53:52.851;-71123.0;232.0
10:53:52.891;9825.0;-204.0
10:53:52.931;53972.0;-301.0
10:53:52.971;-576702.0;-311.0
10:53:53.011;-530219.0;-101.0
10:53:53.051;-154166.0;-74.0
10:53:53.091;-11951.0;-43.0
10:53:53.131;311817.0;52.0
10:53:53.171;22656.0;68.0
10:53:53.211;310051.0;-45.0
10:53:53.251;424604.0;-22.0
10:53:53.291;212185.0;153.0
10:53:53.331;349160.0;44.0
10:53:53.371;-327407.0;124.0
10:53:53.411;106207.0;605.0
10:53:53.451;227353.0;773.0
10:53:53.491;120590.0;492.0
10:53:53.531;236189.0;343.0
10:53:53.571;230124.0;586.0
10:53:53.611;273576.0;985.0
10:53:53.651;285832.0;748.0
10:53:53.691;105699.0;273.0
10:53:53.731;201537.0;302.0
10:53:53.771;148515.0;279.0
10:53:53.811;-71122.0;325.0
10:53:53.851;-132240.0;254.0
10:53:53.891;-122328.0;203.0
10:53:53.931;-90897.0;183.0
10:53:53.971;-95207.0;288.0
10:53:54.011;-57744.0;606.0
10:53:54.051;-8951.0;1065.0
10:53:54.091;-61637.0;631.0
10:53:54.131;-442866.0;372.0
10:53:54.171;-604204.0;278.0
10:53:54.211;-506025.0;167.0
10:53:54.251;-474458.0;510.0
10:53:54.291;-140767.0;355.0
10:53:54.331;-251970.0;6.0
10:53:54.371;-215548.0;-70.0
10:53:54.411;-222934.0;219.0
10:53:54.451;-163129.0;312.0
10:53:54.491;24852.0;-20.0
10:53:54.531;140816.0;-32.0
10:53:54.571;151080.0;167.0
10:53:54.611;157125.0;328.0
10:53:54.651;147966.0;263.0
10:53:54.691;175820.0;220.0
10:53:54.731;-269319.0;536.0
10:53:54.771;-421540.0;884.0
10:53:54.811;-327544.0;558.0
10:53:54.851;-275206.0;258.0
10:53:54.891;16794.0;227.0
10:53:54.931;-555150.0;458.0
10:53:54.971;-81750.0;645.0
10:53:55.011;130940.0;209.0
10:53:55.051;215979.0;-137.0
10:53:55.091;265508.0;-56.0
10:53:55.131;261182.0;35.0
10:53:55.171;216592.0;727.0
10:53:55.211;190076.0;157.0
10:53:55.251;215155.0;67.0
10:53:55.291;206312.0;204.0
10:53:55.331;222604.0;49.0
10:53:55.371;180858.0;-47.0
10:53:55.411;139457.0;-7.0
10:53:55.451;138653.0;-91.0
10:53:55.491;109759.0;-191.0
10:53:55.531;64097.0;-336.0
10:53:55.571;88771.0;292.0
10:53:55.611;93162.0;302.0
10:53:55.651;117981.0;185.0
10:53:55.691;103635.0;16.0
10:54:00.081;77483.0;110.0
10:54:00.121;278995.0;71.0
10:54:00.161;174628.0;-57.0
10:54:00.201;12604.0;1003.0
10:54:00.241;-8176.0;169.0
10:54:00.281;-424864.0;88.0
10:54:00.321;-172523.0;117.0
10:54:00.361;-47582.0;166.0
10:54:00.401;19143.0;73.0
10:54:00.441;72337.0;-43.0
10:54:00.481;-88855.0;-154.0
10:54:00.521;210581.0;-57.0
10:54:00.561;335602.0;-306.0
10:54:00.601;118407.0;381.0
10:54:00.641;272549.0;253.0
10:54:00.681;-396660.0;115.0
10:54:00.721;-37930.0;325.0
10:54:00.761;210855.0;256.0
10:54:00.801;82607.0;180.0
10:54:00.841;194473.0;-27.0
10:54:00.881;137187.0;58.0
10:54:00.921;219529.0;148.0
10:54:00.961;247740.0;223.0
10:54:01.001;4785.0;675.0
10:54:01.041;-42818.0;490.0
10:54:01.081;-93785.0;325.0
10:54:01.121;-108050.0;427.0
10:54:01.161;-77090.0;388.0
10:54:01.201;-57978.0;301.0
10:54:01.241;-23385.0;-82.0
10:54:01.281;-16326.0;-152.0
10:54:01.321;8153.0;332.0
10:54:01.361;-386310.0;288.0
10:54:01.401;39411.0;166.0
10:54:01.441;-402186.0;239.0
10:54:01.481;-534351.0;342.0
10:54:01.521;-215144.0;399.0
10:54:01.561;-26878.0;162.0
10:54:01.601;104645.0;212.0
10:54:01.641;91222.0;433.0
10:54:01.681;299998.0;200.0
10:54:01.721;147587.0;-55.0
10:54:01.761;91059.0;21.0
10:54:01.801;274462.0;305.0
10:54:01.841;-85855.0;216.0
10:54:01.881;-42746.0;-96.0
10:54:01.921;-47389.0;275.0
10:54:01.961;4645.0;865.0
10:54:02.001;-39769.0;658.0
10:54:02.041;23182.0;490.0
10:54:02.081;7232.0;337.0
10:54:02.121;-263597.0;353.0
10:54:02.161;-354612.0;566.0
10:54:02.201;-90378.0;-33.0
10:54:02.241;-264045.0;-217.0
10:54:02.281;-357558.0;-212.0
10:54:02.321;-500412.0;63.0
10:54:02.361;-383820.0;29.0
10:54:02.401;-28372.0;1547.0
10:54:02.441;-176482.0;734.0
10:54:02.481;-227933.0;382.0
10:54:02.521;-280356.0;274.0
10:54:02.561;-259354.0;150.0
10:54:02.601;3126.0;231.0
10:54:02.641;-196572.0;48.0
10:54:02.681;-248047.0;11.0
10:54:02.721;-122034.0;-10.0
10:54:02.761;-109717.0;-173.0
10:54:02.801;114298.0;104.0
10:54:02.841;-138206.0;232.0
10:54:02.881;-253699.0;370.0
10:54:02.921;-146170.0;173.0
10:54:02.961;-93127.0;28.0
10:54:03.001;156531.0;290.0
10:54:03.041;260327.0;217.0
10:54:03.081;273690.0;-26.0
10:54:03.121;164152.0;-97.0
10:54:03.161;55939.0;23.0
10:54:03.201;207123.0;320.0
10:54:03.241;93821.0;348.0
10:54:03.281;134739.0;188.0
10:54:03.321;88255.0;45.0
10:54:03.361;-77137.0;191.0
10:54:03.401;116548.0;400.0
10:54:03.441;-12815.0;302.0
10:54:03.481;-35168.0;243.0
10:54:03.521;143111.0;312.0
10:54:03.561;164932.0;481.0
10:54:03.601;223746.0;732.0
10:54:03.641;195283.0;208.0
10:54:03.681;205763.0;141.0
10:54:03.721;167766.0;181.0
10:54:03.761;153944.0;297.0
10:54:03.801;153955.0;109.0
10:54:03.841;41066.0;-926.0
10:54:03.881;26093.0;-11.0
10:54:03.921;-4711.0;639.0
10:54:03.961;-32027.0;674.0
10:54:04.001;93158.0;484.0
10:54:04.041;126998.0;610.0
10:54:00.557;160268.0;855.0
10:54:00.597;119958.0;892.0
10:54:00.637;36439.0;633.0
10:54:00.677;41415.0;335.0
10:54:00.717;46753.0;239.0
10:54:00.757;86382.0;273.0
10:54:00.797;86475.0;359.0
10:54:00.837;82793.0;51.0
10:54:00.877;83140.0;-41.0
10:54:00.917;63958.0;189.0
10:54:00.957;-192401.0;689.0
10:54:00.997;-289808.0;702.0
10:54:01.037;-111016.0;503.0
10:54:01.077;-271327.0;415.0
10:54:01.117;-311079.0;577.0
10:54:01.157;-212464.0;486.0
10:54:01.197;-153204.0;418.0
10:54:01.237;75186.0;214.0
10:54:01.277;-126065.0;254.0
10:54:01.317;-315171.0;451.0
10:54:01.357;-410065.0;13.0
10:54:01.397;-426227.0;1312.0
10:54:01.437;10734.0;1811.0
10:54:01.477;-62087.0;805.0
10:54:01.517;-522340.0;214.0
10:54:01.557;-297069.0;-241.0
10:54:01.597;300071.0;-679.0
10:54:01.637;553784.0;-826.0
10:54:01.677;125529.0;-385.0
10:54:01.717;-156147.0;-118.0
10:54:01.757;-783443.0;-219.0
10:54:01.797;-517566.0;-124.0
10:54:01.837;-115985.0;59.0
10:54:01.877;218790.0;252.0
10:54:01.917;324861.0;302.0
10:54:01.957;219939.0;169.0
10:54:01.997;132902.0;29.0
10:54:02.037;229547.0;28.0
10:54:02.077;98060.0;-59.0
10:54:02.117;29368.0;182.0
10:54:02.157;-174507.0;138.0
10:54:02.197;-235478.0;160.0
10:54:02.237;33385.0;28.0
10:54:02.277;-176824.0;321.0
10:54:02.317;-266648.0;464.0
10:54:02.357;-804704.0;327.0
10:54:02.397;-524947.0;308.0
10:54:02.437;53803.0;556.0
10:54:02.477;-581509.0;774.0
10:54:02.517;-376806.0;307.0
10:54:02.557;-210693.0;-108.0
10:54:02.597;273076.0;-264.0
10:54:02.637;348498.0;-39.0
10:54:02.677;322364.0;1753.0
10:54:02.717;305310.0;1292.0
10:54:02.757;168410.0;70.0
10:54:02.797;80993.0;-135.0
10:54:02.837;268371.0;72.0
10:54:02.877;95464.0;-296.0
10:54:02.917;-26853.0;-775.0
10:54:02.957;63234.0;-356.0
10:54:02.997;112677.0;123.0
10:54:03.037;296612.0;205.0
10:54:03.077;352643.0;234.0
10:54:03.117;361629.0;577.0
10:54:03.157;292437.0;399.0
10:54:03.197;325994.0;433.0
10:54:03.237;234391.0;326.0
10:54:03.277;286524.0;599.0
10:54:03.317;287583.0;596.0
10:54:03.357;269024.0;208.0
10:54:03.397;212422.0;-34.0
10:54:03.437;236363.0;-88.0
10:54:03.477;173859.0;371.0
10:54:03.517;3736.0;361.0
10:54:03.557;59477.0;83.0
10:54:03.597;89410.0;-70.0
10:54:03.637;-249326.0;133.0
10:54:03.677;-36054.0;272.0
10:54:03.717;36615.0;-38.0
10:54:03.757;100956.0;-377.0
10:54:03.797;129894.0;-95.0
10:54:03.837;139222.0;232.0
10:54:03.877;104099.0;332.0
10:54:03.917;85793.0;162.0
10:54:03.957;-84711.0;-63.0
10:54:03.997;-564232.0;364.0
10:54:04.037;-141904.0;646.0
10:54:04.077;66411.0;535.0
10:54:04.117;109191.0;578.0
10:54:04.157;-438968.0;699.0
10:54:04.197;-92899.0;664.0
10:54:04.237;81268.0;448.0
10:54:04.277;125470.0;240.0
10:54:04.317;121353.0;75.0
10:54:04.357;154099.0;238.0
10:54:04.397;155698.0;225.0
10:54:04.437;159393.0;-42.0
10:54:04.477;160073.0;-103.0
10:54:04.517;126540.0;-106.0
10:54:11.050;117277.0;242.0
10:54:11.090;80642.0;155.0
10:54:11.130;60488.0;213.0
10:54:11.170;288368.0;-122.0
10:54:11.210;146291.0;157.0
10:54:11.250;67253.0;190.0
10:54:11.290;52361.0;166.0
10:54:11.330;1531.0;411.0
10:54:11.370;90944.0;489.0
10:54:11.410;60532.0;13.0
10:54:11.450;41185.0;-160.0
10:54:11.490;68060.0;-91.0
10:54:11.530;27691.0;315.0
10:54:11.570;234291.0;763.0
10:54:11.610;81929.0;595.0
10:54:11.650;3148.0;361.0
10:54:11.690;8859.0;475.0
10:54:11.730;13840.0;554.0
10:54:11.770;210931.0;547.0
10:54:11.810;52644.0;513.0
10:54:11.850;10440.0;135.0
10:54:11.890;-22900.0;-70.0
10:54:11.930;-60360.0;66.0
10:54:11.970;168025.0;131.0
10:54:12.010;31010.0;34.0
10:54:12.050;-38129.0;79.0
10:54:12.090;-40326.0;-58.0
10:54:12.130;-63519.0;77.0
10:54:12.170;162903.0;93.0
10:54:12.210;257486.0;162.0
10:54:12.250;77593.0;93.0
10:54:12.290;13435.0;221.0
10:54:12.330;-63740.0;306.0
10:54:12.370;141263.0;411.0
10:54:12.410;7662.0;560.0
10:54:12.450;-32166.0;716.0
10:54:12.490;-93048.0;449.0
10:54:12.530;-62755.0;317.0
10:54:12.570;143646.0;247.0
10:54:12.610;29756.0;331.0
10:54:12.650;-240999.0;746.0
10:54:12.690;-145479.0;402.0
10:54:12.730;-83164.0;477.0
10:54:12.770;149280.0;340.0
10:54:12.810;31406.0;302.0
10:54:12.850;-62793.0;408.0
10:54:12.890;-101890.0;477.0
10:54:12.930;-79255.0;108.0
10:54:12.970;154200.0;-27.0
10:54:13.010;5491.0;52.0
10:54:13.050;-52279.0;183.0
10:54:13.090;-69389.0;427.0
10:54:13.130;-56891.0;498.0
10:54:13.170;165214.0;452.0
10:54:13.210;14314.0;656.0
10:54:13.250;-13687.0;486.0
10:54:13.290;-72685.0;238.0
10:54:13.330;-100340.0;89.0
10:54:13.370;146032.0;74.0
10:54:13.410;16288.0;24.0
10:54:13.450;7908.0;187.0
10:54:13.490;-1985.0;253.0
10:54:13.530;-50445.0;234.0
10:54:13.570;160159.0;-36.0
10:54:13.610;33440.0;14.0
10:54:13.650;-57766.0;184.0
10:54:13.690;-81155.0;200.0
10:54:13.730;-103842.0;193.0
10:54:13.770;141032.0;74.0
10:54:13.810;3495.0;65.0
10:54:13.850;-40724.0;74.0
10:54:13.890;-36347.0;74.0
10:54:13.930;-82414.0;291.0
10:54:13.970;88281.0;-196.0
10:54:14.010;2296.0;2.0
10:54:14.050;-40037.0;105.0
10:54:14.090;-71919.0;186.0
10:54:14.130;-87608.0;143.0
10:54:14.170;130624.0;411.0
10:54:14.210;16888.0;497.0
10:54:14.250;-11957.0;80.0
10:54:14.290;-18987.0;-283.0
10:54:14.330;-54910.0;-198.0
10:54:14.370;74989.0;42.0
10:54:14.410;30378.0;172.0
10:54:14.450;-31969.0;-32.0
10:54:14.490;-91864.0;63.0
10:54:14.530;-4359.0;108.0
10:54:14.570;183929.0;550.0
10:54:14.610;36467.0;376.0
10:54:14.650;-42579.0;239.0
10:54:14.690;-81243.0;174.0
10:54:14.730;-61119.0;202.0
10:54:14.770;-161453.0;325.0
10:54:14.810;-32662.0;241.0
10:54:14.850;-31054.0;-143.0
10:54:14.890;-84717.0;-152.0
10:54:14.930;37364.0;-33.0
10:54:14.970;166204.0;-33.0
10:54:15.010;38366.0;-130.0
10:54:12.285;16525.0;789.0
10:54:12.325;247.0;469.0
10:54:12.365;-44261.0;344.0
10:54:12.405;-49352.0;-160.0
10:54:12.445;-35076.0;-432.0
10:54:12.485;-462037.0;-340.0
10:54:12.525;-195810.0;43.0
10:54:12.565;-103369.0;141.0
10:54:12.605;-39409.0;147.0
10:54:12.645;-17278.0;10.0
10:54:12.685;227155.0;319.0
10:54:12.725;105029.0;269.0
10:54:12.765;50046.0;-41.0
10:54:12.805;38987.0;-345.0
10:54:12.845;38010.0;-51.0
10:54:12.885;234130.0;-10.0
10:54:12.925;138163.0;-141.0
10:54:12.965;49733.0;81.0
10:54:13.005;35786.0;-48.0
10:54:13.045;-601686.0;177.0
10:54:13.085;-246061.0;349.0
10:54:13.125;-128038.0;726.0
10:54:13.165;-65548.0;429.0
10:54:13.205;-8369.0;218.0
10:54:13.245;-7297.0;468.0
10:54:13.285;237119.0;750.0
10:54:13.325;138751.0;644.0
10:54:13.365;94469.0;310.0
10:54:13.405;47227.0;343.0
10:54:13.445;5667.0;496.0
10:54:13.485;215625.0;629.0
10:54:13.525;81879.0;494.0
10:54:13.565;5206.0;320.0
10:54:13.605;-47510.0;412.0
10:54:13.645;-31095.0;470.0
10:54:13.685;193704.0;1647.0
10:54:13.725;46618.0;1059.0
10:54:13.765;-21682.0;725.0
10:54:13.805;-10899.0;362.0
10:54:13.845;-44991.0;305.0
10:54:13.885;176022.0;509.0
10:54:13.925;11230.0;627.0
10:54:13.965;-31860.0;489.0
10:54:14.005;-43644.0;317.0
10:54:14.045;-67974.0;387.0
10:54:14.085;168862.0;474.0
10:54:14.125;72035.0;312.0
10:54:14.165;-3369.0;72.0
10:54:14.205;-2493.0;246.0
10:54:14.245;-9583.0;539.0
10:54:14.285;183865.0;685.0
10:54:14.325;20003.0;708.0
10:54:14.365;-13117.0;603.0
10:54:14.405;-26862.0;778.0
10:54:14.445;-66290.0;588.0
10:54:14.485;153479.0;441.0
10:54:14.525;30811.0;367.0
10:54:14.565;-56654.0;733.0
10:54:14.605;-84309.0;666.0
10:54:14.645;-110465.0;93.0
10:54:14.685;136947.0;-36.0
10:54:14.725;11273.0;-39.0
10:54:14.765;-62152.0;1177.0
10:54:14.805;-86936.0;1060.0
10:54:14.845;-33500.0;710.0
10:54:14.885;173306.0;583.0
10:54:14.925;6307.0;483.0
10:54:14.965;-36713.0;500.0
10:54:15.005;-69153.0;-5.0
10:54:15.045;-172059.0;-14.0
10:54:15.085;115852.0;19.0
10:54:15.125;-1356.0;336.0
10:54:15.165;-51311.0;229.0
10:54:15.205;-31554.0;479.0
10:54:15.245;-21081.0;454.0
10:54:15.285;183267.0;334.0
10:54:15.325;53020.0;376.0
10:54:15.365;-35038.0;425.0
10:54:15.405;-60270.0;340.0
10:54:15.445;-27943.0;478.0
10:54:15.485;174508.0;474.0
10:54:15.525;33914.0;577.0
10:54:15.565;-37760.0;736.0
10:54:15.605;-83398.0;606.0
10:54:15.645;-79819.0;494.0
10:54:15.685;149386.0;187.0
10:54:15.725;25865.0;280.0
10:54:15.765;-19682.0;464.0
10:54:15.805;-53137.0;512.0
10:54:15.845;-101038.0;1088.0
10:54:15.885;136403.0;531.0
10:54:15.925;26785.0;237.0
10:54:15.965;-68910.0;372.0
10:54:16.005;-38766.0;564.0
10:54:16.045;-76291.0;884.0
10:54:16.085;148496.0;651.0
10:54:16.125;29946.0;259.0
10:54:16.165;-233504.0;241.0
10:54:16.205;85393.0;360.0
10:54:16.245;41488.0;-450.0
10:54:13.718;132746.0;43.0
10:54:13.758;32231.0;-278.0
10:54:13.798;-25827.0;-331.0
10:54:13.838;-76042.0;-197.0
10:54:13.878;-154201.0;-380.0
10:54:13.918;-122539.0;-1.0
10:54:13.958;-94432.0;-155.0
10:54:13.998;-75112.0;-27.0
10:54:14.038;-133296.0;-68.0
10:54:14.078;149950.0;184.0
10:54:14.118;40433.0;524.0
10:54:14.158;3457.0;452.0
10:54:14.198;-23433.0;-118.0
10:54:14.238;-11504.0;-229.0
10:54:14.278;196839.0;32.0
10:54:14.318;196333.0;153.0
10:54:14.358;270662.0;159.0
10:54:14.398;49282.0;97.0
10:54:14.438;-51743.0;316.0
10:54:14.478;-13273.0;210.0
10:54:14.518;-80068.0;909.0
10:54:14.558;-392872.0;448.0
10:54:14.598;-574659.0;221.0
10:54:14.638;-545996.0;26.0
10:54:14.678;-238097.0;48.0
10:54:14.718;-369997.0;586.0
10:54:14.758;-340993.0;337.0
10:54:14.798;-325389.0;-128.0
10:54:14.838;-233774.0;-229.0
10:54:14.878;-8635.0;97.0
10:54:14.918;-266249.0;216.0
10:54:14.958;-356481.0;-238.0
10:54:14.998;-405764.0;-388.0
10:54:15.038;-360342.0;-275.0
10:54:15.078;21733.0;55.0
10:54:15.118;-215646.0;-132.0
10:54:15.158;307217.0;-238.0
10:54:15.198;527147.0;577.0
10:54:15.238;388633.0;460.0
10:54:15.278;517999.0;528.0
10:54:15.318;337370.0;299.0
10:54:15.358;-68408.0;142.0
10:54:15.398;-328988.0;375.0
10:54:15.438;-374052.0;408.0
10:54:15.478;22730.0;155.0
10:54:15.518;-150887.0;13.0
10:54:15.558;-293553.0;51.0
10:54:15.598;-219078.0;286.0
10:54:15.638;-223330.0;155.0
10:54:15.678;8450.0;46.0
10:54:15.718;7257.0;83.0
10:54:15.758;-193152.0;54.0
10:54:15.798;-75636.0;172.0
10:54:15.838;-244644.0;370.0
10:54:15.878;33092.0;6.0
10:54:15.918;368973.0;21.0
10:54:15.958;552942.0;203.0
10:54:15.998;561144.0;333.0
10:54:16.038;400322.0;366.0
10:54:16.078;243132.0;531.0
10:54:16.118;-245814.0;188.0
10:54:16.158;-490519.0;142.0
10:54:16.198;-92492.0;194.0
10:54:16.238;-211850.0;7.0
10:54:16.278;61250.0;124.0
10:54:16.318;-107547.0;271.0
10:54:16.358;-187681.0;288.0
10:54:16.398;-325744.0;100.0
10:54:16.438;-309169.0;90.0
10:54:16.478;55258.0;265.0
10:54:16.518;-360863.0;187.0
10:54:16.558;-274807.0;114.0
10:54:16.598;-72717.0;41.0
10:54:16.638;-57274.0;196.0
10:54:16.678;404259.0;167.0
10:54:16.718;591734.0;392.0
10:54:16.758;646508.0;565.0
10:54:16.798;437997.0;699.0
10:54:16.838;198184.0;478.0
10:54:16.878;146884.0;363.0
10:54:16.918;-249794.0;89.0
10:54:16.958;-373433.0;-157.0
10:54:16.998;-70154.0;-12.0
10:54:17.038;94335.0;261.0
10:54:17.078;138987.0;202.0
10:54:17.118;161260.0;660.0
10:54:17.158;180309.0;267.0
10:54:17.198;209734.0;267.0
10:54:17.238;168471.0;253.0
10:54:17.278;115346.0;177.0
10:54:17.318;110791.0;147.0
10:54:17.358;101628.0;-35.0
10:54:17.398;106433.0;-62.0
10:54:17.438;78309.0;68.0
10:54:17.478;102200.0;56.0
10:54:17.518;89210.0;113.0
10:54:17.558;96909.0;-163.0
10:54:17.598;66158.0;-114.0
10:54:17.638;38800.0;46.0
10:54:17.678;39979.0;246.0
10:54:16.015;8878.0;-50.0
10:54:16.055;1715.0;87.0
10:54:16.095;18082.0;370.0
10:54:16.135;-8296.0;365.0
10:54:16.175;-41499.0;196.0
10:54:16.215;2130.0;406.0
10:54:16.255;11676.0;375.0
10:54:16.295;32226.0;328.0
10:54:16.335;41865.0;80.0
10:54:16.375;-502129.0;-14.0
10:54:16.415;-50868.0;126.0
10:54:16.455;247566.0;292.0
10:54:16.495;120823.0;94.0
10:54:16.535;309712.0;9.0
10:54:16.575;-227765.0;40.0
10:54:16.615;147183.0;140.0
10:54:16.655;-425608.0;543.0
10:54:16.695;-124691.0;594.0
10:54:16.735;198373.0;560.0
10:54:16.775;-136921.0;516.0
10:54:16.815;178802.0;390.0
10:54:16.855;319344.0;465.0
10:54:16.895;138486.0;419.0
10:54:16.935;284947.0;309.0
10:54:16.975;-519009.0;135.0
10:54:17.015;-231479.0;320.0
10:54:17.055;-86906.0;534.0
10:54:17.095;-11042.0;794.0
10:54:17.135;60629.0;465.0
10:54:17.175;-186457.0;211.0
10:54:17.215;-45901.0;145.0
10:54:17.255;6748.0;287.0
10:54:17.295;12386.0;322.0
10:54:17.335;30606.0;40.0
10:54:17.375;-393183.0;-32.0
10:54:17.415;-90325.0;-49.0
10:54:17.455;33922.0;15.0
10:54:17.495;64003.0;196.0
10:54:17.535;266585.0;95.0
10:54:17.575;112511.0;144.0
10:54:17.615;283429.0;192.0
10:54:17.655;353800.0;188.0
10:54:17.695;187599.0;161.0
10:54:17.735;103500.0;103.0
10:54:17.775;61086.0;1412.0
10:54:17.815;4395.0;868.0
10:54:17.855;17630.0;645.0
10:54:17.895;27183.0;338.0
10:54:17.935;7665.0;306.0
10:54:17.975;-2937.0;381.0
10:54:18.015;37062.0;318.0
10:54:18.055;-301808.0;-101.0
10:54:18.095;-119917.0;-122.0
10:54:18.135;-439171.0;-121.0
10:54:18.175;-463430.0;-172.0
10:54:18.215;-449409.0;-80.0
10:54:18.255;-375953.0;-245.0
10:54:18.295;-39733.0;-67.0
10:54:18.335;-220342.0;-276.0
10:54:18.375;-253182.0;-276.0
10:54:18.415;-4399.0;-100.0
10:54:18.455;102989.0;-285.0
10:54:18.495;153469.0;-197.0
10:54:18.535;213091.0;434.0
10:54:18.575;202155.0;337.0
10:54:18.615;274100.0;-15.0
10:54:18.655;210113.0;-35.0
10:54:18.695;157655.0;239.0
10:54:18.735;98483.0;149.0
10:54:18.775;56792.0;-83.0
10:54:18.815;96593.0;-505.0
10:54:18.855;-273503.0;-476.0
10:54:18.895;-78229.0;-318.0
10:54:18.935;-313550.0;-449.0
10:54:18.975;-443729.0;150.0
10:54:19.015;-370776.0;-125.0
10:54:19.055;-298452.0;-357.0
10:54:19.095;7724.0;-443.0
10:54:19.135;-108160.0;-66.0
10:54:19.175;-59636.0;3.0
10:54:19.215;-309887.0;-555.0
10:54:19.255;-214533.0;-511.0
10:54:19.295;71722.0;-165.0
10:54:19.335;35721.0;69.0
10:54:19.375;-185161.0;39.0
10:54:19.415;-253265.0;-183.0
10:54:19.455;-332293.0;74.0
10:54:19.495;37043.0;332.0
10:54:19.535;-170183.0;311.0
10:54:19.575;38911.0;296.0
10:54:19.615;136121.0;481.0
10:54:19.655;195569.0;434.0
10:54:19.695;254584.0;211.0
10:54:19.735;146067.0;221.0
10:54:19.775;99703.0;439.0
10:54:19.815;33296.0;388.0
10:54:19.855;-82523.0;371.0
10:54:19.895;185722.0;325.0
10:54:19.935;244339.0;407.0
10:54:19.975;257956.0;327.0
10:54:20.444;292222.0;155.0
10:54:20.484;262197.0;214.0
10:54:20.524;204836.0;528.0
10:54:20.564;189701.0;549.0
10:54:20.604;162890.0;389.0
10:54:20.644;128153.0;442.0
10:54:20.684;159848.0;510.0
10:54:20.724;130124.0;489.0
10:54:20.764;340750.0;426.0
10:54:20.804;206659.0;-71.0
10:54:20.844;101367.0;-291.0
10:54:20.884;48184.0;-506.0
10:54:20.924;43268.0;-441.0
10:54:20.964;247662.0;-344.0
10:54:21.004;135726.0;-370.0
10:54:21.044;54913.0;1152.0
10:54:21.084;81.0;541.0
10:54:21.124;-9272.0;396.0
10:54:21.164;125977.0;236.0
10:54:21.204;39760.0;138.0
10:54:21.244;9174.0;301.0
10:54:21.284;-28718.0;-1.0
10:54:21.324;-54828.0;-617.0
10:54:21.364;194490.0;-397.0
10:54:21.404;60763.0;-138.0
10:54:21.444;50049.0;-67.0
10:54:21.484;-4198.0;-361.0
10:54:21.524;11184.0;-359.0
10:54:21.564;208586.0;396.0
10:54:21.604;62397.0;430.0
10:54:21.644;11030.0;-21.0
10:54:21.684;-33700.0;-413.0
10:54:21.724;-73477.0;-342.0
10:54:21.764;161740.0;20.0
10:54:21.804;46470.0;-45.0
10:54:21.844;-35093.0;-420.0
10:54:21.884;-68026.0;-441.0
10:54:21.924;-46755.0;-105.0
10:54:21.964;170853.0;-184.0
10:54:22.004;21171.0;-357.0
10:54:22.044;-46775.0;-545.0
10:54:22.084;-46307.0;-278.0
10:54:22.124;-77172.0;75.0
10:54:22.164;156082.0;-106.0
10:54:22.204;9670.0;-207.0
10:54:22.244;-18462.0;-216.0
10:54:22.284;-47055.0;-88.0
10:54:22.324;-67459.0;7.0
10:54:22.364;158806.0;51.0
10:54:22.404;27455.0;-535.0
10:54:22.444;-18276.0;-295.0
10:54:22.484;-56214.0;-399.0
10:54:22.524;-34674.0;-608.0
10:54:22.564;169693.0;-564.0
10:54:22.604;66630.0;-240.0
10:54:22.644;-41668.0;184.0
10:54:22.684;-85266.0;257.0
10:54:22.724;-66569.0;81.0
10:54:22.764;153222.0;-180.0
10:54:22.804;13173.0;-160.0
10:54:22.844;-40491.0;-95.0
10:54:22.884;-42330.0;15.0
10:54:22.924;-63570.0;204.0
10:54:22.964;153576.0;274.0
10:54:23.004;-628716.0;-221.0
10:54:23.044;-306968.0;108.0
10:54:23.084;-142084.0;408.0
10:54:23.124;-56746.0;419.0
10:54:23.164;205357.0;683.0
10:54:23.204;72029.0;864.0
10:54:23.244;14006.0;528.0
10:54:23.284;7668.0;390.0
10:54:23.324;5474.0;477.0
10:54:23.364;218453.0;690.0
10:54:23.404;61731.0;1871.0
10:54:23.444;-1039.0;1004.0
10:54:23.484;13152.0;678.0
10:54:23.524;-23988.0;737.0
10:54:23.564;191769.0;675.0
10:54:23.604;57877.0;450.0
10:54:23.644;-11225.0;-91.0
10:54:23.684;-32880.0;59.0
10:54:23.724;-40342.0;431.0
10:54:23.764;175598.0;291.0
10:54:23.804;55164.0;42.0
10:54:23.844;182480.0;993.0
10:54:23.884;255788.0;880.0
10:54:23.924;52568.0;629.0
10:54:23.964;147879.0;474.0
10:54:24.004;217398.0;607.0
10:54:24.044;3362.0;1031.0
10:54:24.084;-84594.0;568.0
10:54:24.124;-130216.0;120.0
10:54:24.164;79308.0;102.0
10:54:24.204;-28159.0;232.0
10:54:24.244;-73269.0;253.0
10:54:24.284;-122932.0;259.0
10:54:24.324;-131831.0;299.0
10:54:24.364;104992.0;333.0
10:54:24.404;-5980.0;370.0
10:54:24.987;-15623.0;303.0
10:54:25.027;-98868.0;382.0
10:54:25.067;120700.0;358.0
10:54:25.107;-37377.0;365.0
10:54:25.147;-97013.0;489.0
10:54:25.187;-122961.0;558.0
10:54:25.227;-99944.0;319.0
10:54:25.267;132032.0;917.0
10:54:25.307;-14918.0;1020.0
10:54:25.347;-83669.0;920.0
10:54:25.387;-97233.0;717.0
10:54:25.427;-76075.0;390.0
10:54:25.467;149765.0;405.0
10:54:25.507;22759.0;750.0
10:54:25.547;-8775.0;414.0
10:54:25.587;-61235.0;207.0
10:54:25.627;-49460.0;-96.0
10:54:25.667;157454.0;-100.0
10:54:25.707;-5117.0;235.0
10:54:25.747;-59051.0;940.0
10:54:25.787;-105168.0;1321.0
10:54:25.827;-87068.0;524.0
10:54:25.867;129215.0;-116.0
10:54:25.907;-26871.0;-360.0
10:54:25.947;-77883.0;-398.0
10:54:25.987;-102434.0;-274.0
10:54:26.027;-82494.0;-245.0
10:54:26.067;77328.0;-186.0
10:54:26.107;-40077.0;136.0
10:54:26.147;-82457.0;551.0
10:54:26.187;-83744.0;155.0
10:54:26.227;-57011.0;33.0
10:54:26.267;26559.0;-69.0
10:54:26.307;-11833.0;-55.0
10:54:26.347;-18098.0;286.0
10:54:26.387;-23922.0;595.0
10:54:26.427;-72510.0;564.0
10:54:26.467;11294.0;442.0
10:54:26.507;-43370.0;253.0
10:54:26.547;-66033.0;203.0
10:54:26.587;-63605.0;309.0
10:54:26.627;-14727.0;300.0
10:54:26.667;-600802.0;100.0
10:54:26.707;-259577.0;-22.0
10:54:26.747;-96951.0;168.0
10:54:26.787;20064.0;341.0
10:54:26.827;272232.0;207.0
10:54:26.867;143625.0;-170.0
10:54:26.907;305785.0;453.0
10:54:26.947;365230.0;471.0
10:54:26.987;159076.0;437.0
10:54:27.027;273329.0;387.0
10:54:27.067;-383983.0;31.0
10:54:27.107;-204017.0;237.0
10:54:27.147;-132100.0;477.0
10:54:27.187;-56998.0;132.0
10:54:27.227;-11655.0;-445.0
10:54:27.267;-270733.0;-524.0
10:54:27.307;-107996.0;-490.0
10:54:27.347;-58187.0;-358.0
10:54:27.387;-3282.0;-470.0
10:54:27.427;-8731.0;-239.0
10:54:27.467;-133550.0;-253.0
10:54:27.507;-11527.0;-255.0
10:54:27.547;49778.0;-262.0
10:54:27.587;33617.0;-441.0
10:54:27.627;56700.0;-388.0
10:54:27.667;4017.0;-34.0
10:54:27.707;40761.0;513.0
10:54:27.747;22960.0;31.0
10:54:27.787;77428.0;-39.0
10:54:27.827;84178.0;-190.0
10:54:27.867;-632802.0;-296.0
10:54:27.907;-211897.0;-131.0
10:54:27.947;-23536.0;-264.0
10:54:27.987;108110.0;-450.0
10:54:28.027;-68881.0;-429.0
10:54:28.067;-131425.0;-497.0
10:54:28.107;-127638.0;-38.0
10:54:28.147;-137173.0;-381.0
10:54:28.187;-214375.0;-314.0
10:54:28.227;-419872.0;-341.0
10:54:28.267;-334052.0;-724.0
10:54:28.307;-445130.0;-560.0
10:54:28.347;-410969.0;-614.0
10:54:28.387;-42740.0;-650.0
10:54:28.427;-273145.0;-562.0
10:54:28.467;-269519.0;-595.0
10:54:28.507;-225940.0;-452.0
10:54:28.547;-268025.0;-211.0
10:54:28.587;142320.0;-99.0
10:54:28.627;44329.0;-179.0
10:54:28.667;226284.0;-20.0
10:54:28.707;311788.0;-22.0
10:54:28.747;336353.0;-278.0
10:54:28.787;305980.0;-442.0
10:54:28.827;164794.0;-311.0
10:54:28.867;318740.0;-206.0
10:54:28.907;130166.0;-77.0
10:54:28.947;191572.0;197.0
10:54:29.083;178166.0;83.0
10:54:29.123;217352.0;713.0
10:54:29.163;176345.0;73.0
10:54:29.203;136830.0;3.0
10:54:29.243;260580.0;220.0
10:54:29.283;188362.0;614.0
10:54:29.323;51920.0;297.0
10:54:29.363;80156.0;-47.0
10:54:29.403;308000.0;-307.0
10:54:29.443;340554.0;-27.0
10:54:29.483;148377.0;-151.0
10:54:29.523;80002.0;-516.0
10:54:29.563;47061.0;-450.0
10:54:29.603;36535.0;-168.0
10:54:29.643;240761.0;26.0
10:54:29.683;80217.0;-187.0
10:54:29.723;57818.0;-112.0
10:54:29.763;6146.0;132.0
10:54:29.803;-2647.0;423.0
10:54:29.843;204030.0;674.0
10:54:29.883;66883.0;516.0
10:54:29.923;1664.0;550.0
10:54:29.963;-48618.0;474.0
10:54:30.003;-46030.0;655.0
10:54:30.043;175613.0;843.0
10:54:30.083;30144.0;671.0
10:54:30.123;-19767.0;417.0
10:54:30.163;-63115.0;369.0
10:54:30.203;-81262.0;307.0
10:54:30.243;157674.0;-46.0
10:54:30.283;31065.0;46.0
10:54:30.323;-18459.0;364.0
10:54:30.363;-61658.0;610.0
10:54:30.403;-73896.0;720.0
10:54:30.443;159255.0;584.0
10:54:30.483;13849.0;221.0
10:54:30.523;-66864.0;242.0
10:54:30.563;-96283.0;455.0
10:54:30.603;-63698.0;405.0
10:54:30.643;166535.0;1647.0
10:54:30.683;20613.0;1010.0
10:54:30.723;-177952.0;401.0
10:54:30.763;-120728.0;270.0
10:54:30.803;-97781.0;367.0
10:54:30.843;161687.0;598.0
10:54:30.883;270355.0;263.0
10:54:30.923;98617.0;128.0
10:54:30.963;5184.0;364.0
10:54:31.003;-27356.0;504.0
10:54:31.043;167934.0;1690.0
10:54:31.083;1406.0;956.0
10:54:31.123;-34160.0;626.0
10:54:31.163;-64127.0;625.0
10:54:31.203;-99473.0;687.0
10:54:31.243;136898.0;685.0
10:54:31.283;1764.0;336.0
10:54:31.323;-73238.0;334.0
10:54:31.363;-96661.0;319.0
10:54:31.403;-115351.0;347.0
10:54:31.443;137093.0;450.0
10:54:31.483;7651.0;475.0
10:54:31.523;-46081.0;574.0
10:54:31.563;-61329.0;471.0
10:54:31.603;-82580.0;334.0
10:54:31.643;-1076902.0;3.0
10:54:31.683;-239511.0;60.0
10:54:31.723;-45959.0;-33.0
10:54:31.763;4269.0;-40.0
10:54:31.803;73643.0;18.0
10:54:31.843;287706.0;72.0
10:54:31.883;133195.0;-211.0
10:54:31.923;100536.0;-129.0
10:54:31.963;36637.0;-111.0
10:54:32.003;4986.0;-36.0
10:54:32.043;220093.0;6.0
10:54:32.083;59284.0;-8.0
10:54:32.123;31950.0;-26.0
10:54:32.163;11919.0;-159.0
10:54:32.203;11589.0;-350.0
10:54:32.243;-170917.0;-55.0
10:54:32.283;-80171.0;59.0
10:54:32.323;-43014.0;54.0
10:54:32.363;-43047.0;99.0
10:54:32.403;-21589.0;342.0
10:54:32.443;108447.0;181.0
10:54:32.483;45866.0;-365.0
10:54:32.523;470.0;-271.0
10:54:32.563;10189.0;-87.0
10:54:32.603;-5067.0;-401.0
10:54:32.643;-130473.0;-667.0
10:54:32.683;-57786.0;-512.0
10:54:32.723;3243.0;-205.0
10:54:32.763;-16655.0;-180.0
10:54:32.803;1248.0;-466.0
10:54:32.843;157546.0;-409.0
10:54:32.883;97769.0;-154.0
10:54:32.923;45635.0;-72.0
10:54:32.963;-18275.0;-24.0
10:54:33.003;-40413.0;-392.0
10:54:33.043;15787.0;-201.0
10:54:32.843;22104.0;61.0
10:54:32.883;17320.0;129.0
10:54:32.923;-13750.0;-103.0
10:54:32.963;-960.0;-170.0
10:54:33.003;-30949.0;-180.0
10:54:33.043;-31380.0;965.0
10:54:33.083;-46255.0;677.0
10:54:33.123;-3711.0;-111.0
10:54:33.163;-34531.0;-303.0
10:54:33.203;-260812.0;-387.0
10:54:33.243;-103265.0;-745.0
10:54:33.283;-62027.0;-1366.0
10:54:33.323;-34402.0;-1110.0
10:54:33.363;-7587.0;-648.0
10:54:33.403;2723.0;-216.0
10:54:33.443;20088.0;80.0
10:54:33.483;9398.0;59.0
10:54:33.523;189855.0;-58.0
10:54:33.563;82325.0;332.0
10:54:33.603;10695.0;430.0
10:54:33.643;27912.0;396.0
10:54:33.683;-2731.0;186.0
10:54:33.723;34003.0;265.0
10:54:33.763;24873.0;409.0
10:54:33.803;17064.0;440.0
10:54:33.843;-2343.0;-136.0
10:54:33.883;36952.0;-70.0
10:54:33.923;-5862.0;152.0
10:54:33.963;-16636.0;223.0
10:54:34.003;-25390.0;131.0
10:54:34.043;-13960.0;94.0
10:54:34.083;-28247.0;110.0
10:54:34.123;-3292.0;357.0
10:54:34.163;-7164.0;474.0
10:54:34.203;-17026.0;27.0
10:54:34.243;-1176.0;-86.0
10:54:34.283;-16797.0;327.0
10:54:34.323;9233.0;807.0
10:54:34.363;-2850.0;521.0
10:54:34.403;-21432.0;262.0
10:54:34.443;-34228.0;395.0
10:54:34.483;-19338.0;574.0
10:54:34.523;19680.0;355.0
10:54:34.563;-959.0;-186.0
10:54:34.603;233461.0;-204.0
10:54:34.643;138771.0;352.0
10:54:34.683;22309.0;548.0
10:54:34.723;224218.0;466.0
10:54:34.763;303879.0;257.0
10:54:34.803;121035.0;321.0
10:54:34.843;21308.0;180.0
10:54:34.883;-41121.0;206.0
10:54:34.923;141924.0;222.0
10:54:34.963;44047.0;105.0
10:54:35.003;-55657.0;287.0
10:54:35.043;-99652.0;420.0
10:54:35.083;-109058.0;548.0
10:54:35.123;9292.0;406.0
10:54:35.163;-54998.0;535.0
10:54:35.203;-83167.0;243.0
10:54:35.243;-88584.0;460.0
10:54:35.283;-79008.0;873.0
10:54:35.323;-43043.0;895.0
10:54:35.363;-66198.0;414.0
10:54:35.403;-75530.0;379.0
10:54:35.443;-43987.0;534.0
10:54:35.483;-24421.0;329.0
10:54:35.523;77618.0;110.0
10:54:35.563;2371.0;31.0
10:54:35.603;-50181.0;352.0
10:54:35.643;-52405.0;336.0
10:54:35.683;-21325.0;258.0
10:54:35.723;130906.0;197.0
10:54:35.763;74327.0;470.0
10:54:35.803;228570.0;183.0
10:54:35.843;85299.0;692.0
10:54:35.883;-15360.0;599.0
10:54:35.923;184178.0;793.0
10:54:35.963;-442227.0;702.0
10:54:36.003;-210050.0;559.0
10:54:36.043;-121981.0;700.0
10:54:36.083;165722.0;767.0
10:54:36.123;286920.0;375.0
10:54:36.163;75028.0;332.0
10:54:36.203;-6058.0;462.0
10:54:36.243;-31798.0;630.0
10:54:36.283;-21264.0;557.0
10:54:36.323;187636.0;427.0
10:54:36.363;38552.0;786.0
10:54:36.403;-27395.0;965.0
10:54:36.443;-53593.0;765.0
10:54:36.483;-79661.0;494.0
10:54:36.523;158081.0;623.0
10:54:36.563;31720.0;548.0
10:54:36.603;-70410.0;516.0
10:54:36.643;74105.0;68.0
10:54:36.683;-7891.0;259.0
10:54:36.723;181090.0;470.0
10:54:36.763;62765.0;356.0
10:54:36.803;-3554.0;264.0
10:54:46.218;171045.0;404.0
10:54:46.258;-82364.0;366.0
10:54:46.298;131135.0;368.0
10:54:46.338;-121328.0;1016.0
10:54:46.378;-129188.0;1315.0
10:54:46.418;-95826.0;712.0
10:54:46.458;51513.0;253.0
10:54:46.498;-27391.0;369.0
10:54:46.538;-89666.0;546.0
10:54:46.578;-112449.0;429.0
10:54:46.618;137254.0;726.0
10:54:46.658;237468.0;681.0
10:54:46.698;41846.0;498.0
10:54:46.738;-51264.0;459.0
10:54:46.778;-104612.0;597.0
10:54:46.818;-78252.0;537.0
10:54:46.858;-239883.0;208.0
10:54:46.898;-146001.0;388.0
10:54:46.938;132337.0;646.0
10:54:46.978;194473.0;777.0
10:54:47.018;49662.0;699.0
10:54:47.058;201152.0;869.0
10:54:47.098;30842.0;1047.0
10:54:47.138;181488.0;1056.0
10:54:47.178;48035.0;813.0
10:54:47.218;-16694.0;803.0
10:54:47.258;-7903.0;1103.0
10:54:47.298;-73989.0;1267.0
10:54:47.338;-91803.0;1254.0
10:54:47.378;-102854.0;1427.0
10:54:47.418;-113933.0;1581.0
10:54:47.458;-272170.0;1328.0
10:54:47.498;-95961.0;729.0
10:54:47.538;151724.0;652.0
10:54:47.578;60546.0;894.0
10:54:47.618;-41099.0;838.0
10:54:47.658;-313670.0;763.0
10:54:47.698;-131899.0;684.0
10:54:47.738;-91530.0;693.0
10:54:47.778;-41185.0;647.0
10:54:47.818;-32144.0;1955.0
10:54:47.858;78599.0;1321.0
10:54:47.898;54122.0;1043.0
10:54:47.938;-17631.0;868.0
10:54:47.978;-33169.0;1069.0
10:54:48.018;60808.0;1255.0
10:54:48.058;-496959.0;1059.0
10:54:48.098;-30596.0;454.0
10:54:48.138;146958.0;419.0
10:54:48.178;60425.0;658.0
10:54:48.218;82470.0;812.0
10:54:48.258;-202833.0;902.0
10:54:48.298;19891.0;895.0
10:54:48.338;15013.0;1043.0
10:54:48.378;-4738.0;1021.0
10:54:48.418;153701.0;1079.0
10:54:48.458;-350316.0;525.0
10:54:48.498;-196366.0;320.0
10:54:48.538;161381.0;504.0
10:54:48.578;314467.0;738.0
10:54:48.618;367628.0;1075.0
10:54:48.658;273151.0;1095.0
10:54:48.698;122614.0;951.0
10:54:48.738;44618.0;1050.0
10:54:48.778;-40506.0;1030.0
10:54:48.818;34179.0;871.0
10:54:48.858;-543153.0;694.0
10:54:48.898;-158916.0;1087.0
10:54:48.938;38827.0;1241.0
10:54:48.978;7116.0;1021.0
10:54:49.018;157792.0;1116.0
10:54:49.058;-439332.0;928.0
10:54:49.098;34410.0;957.0
10:54:49.138;246628.0;862.0
10:54:49.178;92762.0;568.0
10:54:49.218;223149.0;596.0
10:54:49.258;-448441.0;306.0
10:54:49.298;-198199.0;93.0
10:54:49.338;-100758.0;1676.0
10:54:49.378;-53392.0;1734.0
10:54:49.418;215144.0;1008.0
10:54:49.458;-432749.0;521.0
10:54:49.498;45605.0;210.0
10:54:49.538;277700.0;-158.0
10:54:49.578;154061.0;-452.0
10:54:49.618;296938.0;-162.0
10:54:49.658;-308279.0;-34.0
10:54:49.698;91788.0;278.0
10:54:49.738;262744.0;387.0
10:54:49.778;96123.0;368.0
10:54:49.818;250468.0;413.0
10:54:49.858;222691.0;395.0
10:54:49.898;257576.0;505.0
10:54:49.938;265397.0;384.0
10:54:49.978;46991.0;377.0
10:54:50.018;161856.0;489.0
10:54:50.058;-93825.0;732.0
10:54:50.098;99928.0;514.0
10:54:50.138;184484.0;453.0
10:54:50.178;53390.0;548.0
10:54:47.343;-13372.0;695.0
10:54:47.383;-53693.0;798.0
10:54:47.423;-113370.0;859.0
10:54:47.463;-126760.0;915.0
10:54:47.503;-135156.0;765.0
10:54:47.543;87955.0;351.0
10:54:47.583;-48094.0;371.0
10:54:47.623;-96052.0;305.0
10:54:47.663;-93364.0;197.0
10:54:47.703;-135461.0;121.0
10:54:47.743;111129.0;16.0
10:54:47.783;2417.0;-429.0
10:54:47.823;-46808.0;-469.0
10:54:47.863;-85732.0;-520.0
10:54:47.903;-107347.0;-322.0
10:54:47.943;130095.0;-315.0
10:54:47.983;15382.0;-447.0
10:54:48.023;-63261.0;-334.0
10:54:48.063;-102543.0;-328.0
10:54:48.103;-119958.0;-573.0
10:54:48.143;45063.0;-471.0
10:54:48.183;-64184.0;-419.0
10:54:48.223;-94851.0;-301.0
10:54:48.263;-89892.0;-337.0
10:54:48.303;-40662.0;-178.0
10:54:48.343;179341.0;-89.0
10:54:48.383;85530.0;-192.0
10:54:48.423;13465.0;-277.0
10:54:48.463;-54382.0;-400.0
10:54:48.503;-80341.0;-470.0
10:54:48.543;154309.0;-393.0
10:54:48.583;23979.0;-454.0
10:54:48.623;-33242.0;-254.0
10:54:48.663;-73949.0;-50.0
10:54:48.703;-102640.0;-120.0
10:54:48.743;124360.0;-220.0
10:54:48.783;10288.0;-494.0
10:54:48.823;-23022.0;-479.0
10:54:48.863;-48122.0;-822.0
10:54:48.903;-91893.0;-679.0
10:54:48.943;151603.0;-545.0
10:54:48.983;15842.0;-427.0
10:54:49.023;-55401.0;-634.0
10:54:49.063;-86254.0;-669.0
10:54:49.103;-419281.0;-467.0
10:54:49.143;-143260.0;-445.0
10:54:49.183;-60563.0;-553.0
10:54:49.223;-45314.0;-553.0
10:54:49.263;-1541.0;40.0
10:54:49.303;-23639.0;205.0
10:54:49.343;-126867.0;-249.0
10:54:49.383;104855.0;-356.0
10:54:49.423;205298.0;-146.0
10:54:49.463;71087.0;219.0
10:54:49.503;33293.0;33.0
10:54:49.543;-253839.0;-381.0
10:54:49.583;-116609.0;-270.0
10:54:49.623;-82718.0;-58.0
10:54:49.663;-49314.0;-105.0
10:54:49.703;-45552.0;-250.0
10:54:49.743;-474434.0;-280.0
10:54:49.783;-207517.0;-136.0
10:54:49.823;-55380.0;-22.0
10:54:49.863;-338.0;-226.0
10:54:49.903;16903.0;-254.0
10:54:49.943;-247750.0;-148.0
10:54:49.983;176318.0;103.0
10:54:50.023;357623.0;388.0
10:54:50.063;183456.0;272.0
10:54:50.103;331663.0;358.0
10:54:50.143;-311522.0;301.0
10:54:50.183;81889.0;483.0
10:54:50.223;279950.0;667.0
10:54:50.263;107058.0;735.0
10:54:50.303;269633.0;530.0
10:54:50.343;-183706.0;477.0
10:54:50.383;136827.0;934.0
10:54:50.423;275154.0;711.0
10:54:50.463;165450.0;742.0
10:54:50.503;266868.0;587.0
10:54:50.543;170455.0;579.0
10:54:50.583;152380.0;744.0
10:54:50.623;142263.0;392.0
10:54:50.663;3376.0;344.0
10:54:50.703;90548.0;329.0
10:54:50.743;-62892.0;911.0
10:54:50.783;83581.0;1118.0
10:54:50.823;150937.0;535.0
10:54:50.863;-9091.0;238.0
10:54:50.903;108698.0;442.0
10:54:50.943;36762.0;790.0
10:54:50.983;132075.0;591.0
10:54:51.023;-97522.0;-92.0
10:54:51.063;-114133.0;11.0
10:54:51.103;-192379.0;357.0
10:54:51.143;-241797.0;242.0
10:54:51.183;-178418.0;833.0
10:54:51.223;-120028.0;1047.0
10:54:51.263;-125127.0;456.0
10:54:51.303;-55744.0;-5.0
10:54:47.701;-439252.0;-546.0
10:54:47.741;-205309.0;-309.0
10:54:47.781;-94935.0;-658.0
10:54:47.821;-127095.0;-297.0
10:54:47.861;173177.0;-356.0
10:54:47.901;53195.0;-360.0
10:54:47.941;3852.0;-180.0
10:54:47.981;9022.0;-281.0
10:54:48.021;34667.0;-715.0
10:54:48.061;233003.0;-759.0
10:54:48.101;88421.0;-606.0
10:54:48.141;56939.0;-581.0
10:54:48.181;12952.0;-378.0
10:54:48.221;-26696.0;-571.0
10:54:48.261;187054.0;-619.0
10:54:48.301;-153073.0;-549.0
10:54:48.341;-92543.0;-523.0
10:54:48.381;-70304.0;154.0
10:54:48.421;-57922.0;93.0
10:54:48.461;53043.0;-294.0
10:54:48.501;-11625.0;-404.0
10:54:48.541;-34645.0;-316.0
10:54:48.581;-52887.0;-22.0
10:54:48.621;-70627.0;-94.0
10:54:48.661;169942.0;-518.0
10:54:48.701;180438.0;-547.0
10:54:48.741;166484.0;-522.0
10:54:48.781;35431.0;-694.0
10:54:48.821;52131.0;-676.0
10:54:48.861;-258637.0;-772.0
10:54:48.901;-147059.0;-478.0
10:54:48.941;-49833.0;-512.0
10:54:48.981;-59824.0;-485.0
10:54:49.021;171749.0;-155.0
10:54:49.061;-361274.0;-150.0
10:54:49.101;37463.0;-429.0
10:54:49.141;203901.0;-734.0
10:54:49.181;-590682.0;-591.0
10:54:49.221;-111776.0;-211.0
10:54:49.261;-556101.0;-209.0
10:54:49.301;-26970.0;-283.0
10:54:49.341;40065.0;-414.0
10:54:49.381;54368.0;-671.0
10:54:49.421;30608.0;-199.0
10:54:49.461;-315424.0;-155.0
10:54:49.501;-72100.0;-62.0
10:54:49.541;35905.0;41.0
10:54:49.581;66067.0;390.0
10:54:49.621;63101.0;-37.0
10:54:49.661;-485982.0;-264.0
10:54:49.701;66437.0;-176.0
10:54:49.741;293930.0;-17.0
10:54:49.781;167538.0;-262.0
10:54:49.821;324322.0;-396.0
10:54:49.861;-338602.0;-550.0
10:54:49.901;113030.0;-375.0
10:54:49.941;279786.0;-236.0
10:54:49.981;172215.0;-197.0
10:54:50.021;313804.0;-175.0
10:54:50.061;-229864.0;-335.0
10:54:50.101;137058.0;-258.0
10:54:50.141;296909.0;-227.0
10:54:50.181;116954.0;-137.0
10:54:50.221;267458.0;80.0
10:54:50.261;-434374.0;-186.0
10:54:50.301;27317.0;-157.0
10:54:50.341;216944.0;-56.0
10:54:50.381;34712.0;-199.0
10:54:50.421;213717.0;-343.0
10:54:50.461;37628.0;-239.0
10:54:50.501;202830.0;-27.0
10:54:50.541;272101.0;-311.0
10:54:50.581;69097.0;-615.0
10:54:50.621;197156.0;-842.0
10:54:50.661;55082.0;1369.0
10:54:50.701;30026.0;851.0
10:54:50.741;36106.0;-262.0
10:54:50.781;170043.0;-865.0
10:54:50.821;-393332.0;-1261.0
10:54:50.861;-107152.0;-1538.0
10:54:50.901;50097.0;-2173.0
10:54:50.941;-14560.0;-1615.0
10:54:50.981;-43397.0;-903.0
10:54:51.021;-69558.0;-618.0
10:54:51.061;34097.0;-172.0
10:54:51.101;-14818.0;-274.0
10:54:51.141;138268.0;-57.0
10:54:51.181;9982.0;94.0
10:54:51.221;151790.0;259.0
10:54:51.261;-38377.0;81.0
10:54:51.301;-132582.0;-295.0
10:54:51.341;-154009.0;-406.0
10:54:51.381;-158068.0;-219.0
10:54:51.421;-128963.0;-61.0
10:54:51.461;-54051.0;577.0
10:54:51.501;717.0;-62.0
10:54:51.541;-21723.0;-66.0
10:54:51.581;-54247.0;110.0
10:54:51.621;49102.0;56.0
10:54:51.661;-330489.0;-198.0
10:54:50.619;-463493.0;-388.0
10:54:50.659;-182167.0;120.0
10:54:50.699;141248.0;30.0
10:54:50.739;61460.0;-139.0
10:54:50.779;22173.0;-165.0
10:54:50.819;-16940.0;-19.0
10:54:50.859;-15406.0;137.0
10:54:50.899;224189.0;485.0
10:54:50.939;95437.0;-75.0
10:54:50.979;38213.0;-207.0
10:54:51.019;10840.0;104.0
10:54:51.059;-576.0;476.0
10:54:51.099;213366.0;496.0
10:54:51.139;94125.0;137.0
10:54:51.179;45907.0;-228.0
10:54:51.219;-11219.0;-174.0
10:54:51.259;-57754.0;-372.0
10:54:51.299;173424.0;-514.0
10:54:51.339;43760.0;-445.0
10:54:51.379;-48963.0;-275.0
10:54:51.419;-50329.0;-81.0
10:54:51.459;-65884.0;-221.0
10:54:51.499;167150.0;-283.0
10:54:51.539;31895.0;-456.0
10:54:51.579;-40821.0;-427.0
10:54:51.619;-88504.0;-433.0
10:54:51.659;-72657.0;-268.0
10:54:51.699;164275.0;-146.0
10:54:51.739;34077.0;158.0
10:54:51.779;-28789.0;-188.0
10:54:51.819;-69263.0;-170.0
10:54:51.859;-60977.0;15.0
10:54:51.899;167538.0;156.0
10:54:51.939;262022.0;121.0
10:54:51.979;93872.0;-431.0
10:54:52.019;-1075760.0;-730.0
10:54:52.059;-261487.0;-263.0
10:54:52.099;-49770.0;-235.0
10:54:52.139;10843.0;-447.0
10:54:52.179;-4189.0;-483.0
10:54:52.219;235942.0;-400.0
10:54:52.259;332203.0;-540.0
10:54:52.299;358914.0;-511.0
10:54:52.339;125173.0;-641.0
10:54:52.379;6757.0;-370.0
10:54:52.419;-61531.0;-581.0
10:54:52.459;-86359.0;-615.0
10:54:52.499;153419.0;-624.0
10:54:52.539;-4079.0;-313.0
10:54:52.579;-59230.0;-517.0
10:54:52.619;-55647.0;-865.0
10:54:52.659;-94203.0;-916.0
10:54:52.699;152873.0;-653.0
10:54:52.739;15626.0;-565.0
10:54:52.779;-61059.0;-543.0
10:54:52.819;-47884.0;-466.0
10:54:52.859;-74542.0;-356.0
10:54:52.899;162487.0;-322.0
10:54:52.939;57474.0;579.0
10:54:52.979;-10033.0;413.0
10:54:53.019;-61695.0;-149.0
10:54:53.059;-28913.0;-454.0
10:54:53.099;177043.0;-215.0
10:54:53.139;42919.0;223.0
10:54:53.179;-31848.0;-205.0
10:54:53.219;-53938.0;-638.0
10:54:53.259;-88656.0;-539.0
10:54:53.299;147874.0;-320.0
10:54:53.339;-5715.0;-264.0
10:54:53.379;-71060.0;-22.0
10:54:53.419;-112079.0;-179.0
10:54:53.459;-84220.0;-558.0
10:54:53.499;156056.0;-648.0
10:54:53.539;-903.0;-408.0
10:54:53.579;-52065.0;-420.0
10:54:53.619;-58380.0;-435.0
10:54:53.659;-78593.0;-954.0
10:54:53.699;158620.0;-857.0
10:54:53.739;19791.0;-404.0
10:54:53.779;-20742.0;-198.0
10:54:53.819;-21063.0;32.0
10:54:53.859;-29512.0;-226.0
10:54:53.899;170993.0;-267.0
10:54:53.939;46128.0;-135.0
10:54:53.979;-16634.0;46.0
10:54:54.019;-75009.0;-266.0
10:54:54.059;-479793.0;-371.0
10:54:54.099;-12832.0;-526.0
10:54:54.139;-22647.0;-123.0
10:54:54.179;-54047.0;180.0
10:54:54.219;-52781.0;260.0
10:54:54.259;-38886.0;546.0
10:54:54.299;178186.0;164.0
10:54:54.339;86230.0;138.0
10:54:54.379;24230.0;319.0
10:54:54.419;-41453.0;359.0
10:54:54.459;-39880.0;433.0
10:54:54.499;86631.0;157.0
10:54:54.539;1306.0;69.0
10:54:54.579;-29747.0;164.0
10:54:54.440;185653.0;104.0
10:54:54.480;68092.0;372.0
10:54:54.520;-570.0;454.0
10:54:54.560;82603.0;625.0
10:54:54.600;-24626.0;474.0
10:54:54.640;-666445.0;63.0
10:54:54.680;-299414.0;-213.0
10:54:54.720;-107178.0;64.0
10:54:54.760;-37867.0;263.0
10:54:54.800;224250.0;394.0
10:54:54.840;-70058.0;263.0
10:54:54.880;200611.0;314.0
10:54:54.920;313611.0;246.0
10:54:54.960;126034.0;265.0
10:54:55.000;252867.0;392.0
10:54:55.040;71640.0;270.0
10:54:55.080;218448.0;241.0
10:54:55.120;274023.0;-12.0
10:54:55.160;61281.0;426.0
10:54:55.200;187197.0;417.0
10:54:55.240;-387445.0;119.0
10:54:55.280;-4151.0;67.0
10:54:55.320;136054.0;222.0
10:54:55.360;-22643.0;-71.0
10:54:55.400;127990.0;-240.0
10:54:55.440;-43624.0;-419.0
10:54:55.480;121714.0;-234.0
10:54:55.520;193430.0;-85.0
10:54:55.560;6629.0;-398.0
10:54:55.600;137832.0;-396.0
10:54:55.640;-71051.0;-383.0
10:54:55.680;-145532.0;-103.0
10:54:55.720;-160826.0;-360.0
10:54:55.760;-108347.0;-396.0
10:54:55.800;-132031.0;-263.0
10:54:55.840;-106176.0;-227.0
10:54:55.880;-114360.0;-342.0
10:54:55.920;-121324.0;-510.0
10:54:55.960;-68453.0;-191.0
10:54:56.000;-87930.0;-61.0
10:54:56.040;-95896.0;-229.0
10:54:56.080;-75076.0;-349.0
10:54:56.120;-216790.0;9.0
10:54:56.160;-88604.0;253.0
10:54:56.200;-228762.0;-174.0
10:54:56.240;-328127.0;-440.0
10:54:56.280;-747379.0;-264.0
10:54:56.320;-542165.0;-7.0
10:54:56.360;-164554.0;-376.0
10:54:56.400;-357245.0;-491.0
10:54:56.440;-436730.0;-284.0
10:54:56.480;-339573.0;-137.0
10:54:56.520;-323386.0;-122.0
10:54:56.560;51984.0;-656.0
10:54:56.600;-121753.0;-804.0
10:54:56.640;-26983.0;-438.0
10:54:56.680;26553.0;49.0
10:54:56.720;-5524.0;-317.0
10:54:56.760;88532.0;-429.0
10:54:56.800;-27260.0;-254.0
10:54:56.840;-85243.0;-69.0
10:54:56.880;-80255.0;72.0
10:54:56.920;-18917.0;-326.0
10:54:56.960;89393.0;-426.0
10:54:57.000;-43900.0;-252.0
10:54:57.040;145033.0;-300.0
10:54:57.080;213935.0;-1235.0
10:54:57.120;206672.0;-729.0
10:54:57.160;192388.0;-259.0
10:54:57.200;161337.0;15.0
10:54:57.240;150515.0;-40.0
10:54:57.280;112119.0;53.0
10:54:57.320;144560.0;-81.0
10:54:57.360;179442.0;-184.0
10:54:57.400;189072.0;-250.0
10:54:57.440;170940.0;-206.0
10:54:57.480;157126.0;-41.0
10:54:57.520;179429.0;584.0
10:54:57.560;160132.0;-59.0
10:54:57.600;138971.0;-158.0
10:54:57.640;111375.0;-91.0
10:54:57.680;111035.0;-154.0
10:54:57.720;70333.0;-157.0
10:54:57.760;70076.0;-142.0
10:54:57.800;41642.0;-73.0
10:54:57.840;23724.0;-193.0
10:54:57.880;45590.0;-332.0
10:54:57.920;5317.0;-315.0
10:54:57.960;-250435.0;-340.0
10:54:58.000;-77610.0;-127.0
10:54:58.040;-1703.0;-104.0
10:54:58.080;43284.0;-122.0
10:54:58.120;26008.0;30.0
10:54:58.160;16134.0;208.0
10:54:58.200;15526.0;78.0
10:54:58.240;44474.0;-98.0
10:54:58.280;26025.0;-301.0
10:54:58.320;16351.0;-359.0
10:54:58.360;25020.0;-111.0
10:54:58.400;52361.0;348.0
10:55:03.918;25321.0;255.0
10:55:03.958;26284.0;103.0
10:55:03.998;8514.0;-75.0
10:55:04.038;-105486.0;133.0
10:55:04.078;205671.0;-22.0
10:55:04.118;-544936.0;-18.0
10:55:04.158;-181396.0;199.0
10:55:04.198;-13435.0;223.0
10:55:04.238;52963.0;11.0
10:55:04.278;302421.0;-239.0
10:55:04.318;201512.0;-55.0
10:55:04.358;91587.0;87.0
10:55:04.398;54850.0;103.0
10:55:04.438;56600.0;-199.0
10:55:04.478;264788.0;-355.0
10:55:04.518;108406.0;-12.0
10:55:04.558;25871.0;153.0
10:55:04.598;-13056.0;335.0
10:55:04.638;-29962.0;156.0
10:55:04.678;178713.0;-72.0
10:55:04.718;51419.0;-138.0
10:55:04.758;-20550.0;-109.0
10:55:04.798;-50531.0;-235.0
10:55:04.838;-51053.0;-95.0
10:55:04.878;123160.0;596.0
10:55:04.918;31816.0;355.0
10:55:04.958;-25211.0;67.0
10:55:04.998;-55636.0;-169.0
10:55:05.038;-25914.0;-217.0
10:55:05.078;1017.0;-390.0
10:55:05.118;1338.0;-496.0
10:55:05.158;-15969.0;-529.0
10:55:05.198;-17302.0;-126.0
10:55:05.238;11524.0;-226.0
10:55:05.278;-583246.0;-407.0
10:55:05.318;-55757.0;981.0
10:55:05.358;224506.0;507.0
10:55:05.398;-952231.0;30.0
10:55:05.438;-141337.0;-25.0
10:55:05.478;-263605.0;274.0
10:55:05.518;188785.0;765.0
10:55:05.558;326558.0;537.0
10:55:05.598;204179.0;176.0
10:55:05.638;295648.0;226.0
10:55:05.678;-92853.0;131.0
10:55:05.718;199064.0;598.0
10:55:05.758;310163.0;576.0
10:55:05.798;123478.0;674.0
10:55:05.838;276790.0;681.0
10:55:05.878;-423685.0;323.0
10:55:05.918;-61110.0;639.0
10:55:05.958;182993.0;535.0
10:55:05.998;75337.0;541.0
10:55:06.038;258117.0;537.0
10:55:06.078;152603.0;1005.0
10:55:06.118;273402.0;1130.0
10:55:06.158;312784.0;782.0
10:55:06.198;116443.0;787.0
10:55:06.238;217364.0;948.0
10:55:06.278;-278774.0;877.0
10:55:06.318;48936.0;889.0
10:55:06.358;138402.0;422.0
10:55:06.398;-17692.0;368.0
10:55:06.438;117524.0;149.0
10:55:06.478;-52995.0;-178.0
10:55:06.518;110023.0;-258.0
10:55:06.558;180493.0;678.0
10:55:06.598;-2322.0;1439.0
10:55:06.638;131656.0;450.0
10:55:06.678;-81748.0;-126.0
10:55:06.718;-164615.0;-441.0
10:55:06.758;-159985.0;-788.0
10:55:06.798;-144120.0;-751.0
10:55:06.838;-92704.0;-436.0
10:55:06.878;-63147.0;-369.0
10:55:06.918;-20631.0;-309.0
10:55:06.958;13711.0;-215.0
10:55:06.998;-9901.0;-175.0
10:55:07.038;-395562.0;-335.0
10:55:07.078;-482977.0;-345.0
10:55:07.118;-540863.0;-313.0
10:55:07.158;-445144.0;-276.0
10:55:07.198;-118147.0;-406.0
10:55:07.238;-237354.0;-387.0
10:55:07.278;-278992.0;257.0
10:55:07.318;-206184.0;107.0
10:55:07.358;-150899.0;-49.0
10:55:07.398;19651.0;-89.0
10:55:07.438;-170710.0;-221.0
10:55:07.478;-285815.0;-168.0
10:55:07.518;-376108.0;-96.0
10:55:07.558;-254875.0;-360.0
10:55:07.598;22632.0;-467.0
10:55:07.638;-110964.0;-476.0
10:55:07.678;-243850.0;-674.0
10:55:07.718;-198873.0;-789.0
10:55:07.758;-175061.0;-999.0
10:55:07.798;143151.0;-828.0
10:55:07.838;-86183.0;-554.0
10:55:07.878;-189435.0;-773.0
10:55:24.774;116753.0;-590.0
10:55:24.814;193496.0;-477.0
10:55:24.854;243596.0;-490.0
10:55:24.894;263850.0;-691.0
10:55:24.934;233566.0;-833.0
10:55:24.974;217033.0;-368.0
10:55:25.014;193076.0;-96.0
10:55:25.054;179978.0;-475.0
10:55:25.094;415068.0;-420.0
10:55:25.134;269121.0;-417.0
10:55:25.174;167637.0;-288.0
10:55:25.214;109711.0;-622.0
10:55:25.254;148039.0;-567.0
10:55:25.294;345210.0;851.0
10:55:25.334;168574.0;-176.0
10:55:25.374;148564.0;-443.0
10:55:25.414;106354.0;-353.0
10:55:25.454;99036.0;-211.0
10:55:25.494;279762.0;-193.0
10:55:25.534;152740.0;-554.0
10:55:25.574;88523.0;-722.0
10:55:25.614;-7183.0;-385.0
10:55:25.654;-43233.0;-428.0
10:55:25.694;94240.0;-399.0
10:55:25.734;-10348.0;-639.0
10:55:25.774;-586734.0;-442.0
10:55:25.814;-284679.0;-341.0
10:55:25.854;-117542.0;-397.0
10:55:25.894;193733.0;-311.0
10:55:25.934;108385.0;-702.0
10:55:25.974;50499.0;-793.0
10:55:26.014;-237808.0;-894.0
10:55:26.054;-106763.0;-610.0
10:55:26.094;-197986.0;-721.0
10:55:26.134;-28759.0;-881.0
10:55:26.174;-4288.0;-934.0
10:55:26.214;22127.0;-639.0
10:55:26.254;76693.0;-271.0
10:55:26.294;-364652.0;-1054.0
10:55:26.334;-81063.0;-1391.0
10:55:26.374;213045.0;-1156.0
10:55:26.414;130690.0;-758.0
10:55:26.454;274419.0;-603.0
10:55:26.494;75994.0;-885.0
10:55:26.534;65826.0;-713.0
10:55:26.574;232166.0;-417.0
10:55:26.614;119310.0;-296.0
10:55:26.654;20020.0;-685.0
10:55:26.694;-601164.0;-891.0
10:55:26.734;-244773.0;-976.0
10:55:26.774;-55910.0;-686.0
10:55:26.814;-18075.0;-603.0
10:55:26.854;8495.0;-472.0
10:55:26.894;-408102.0;56.0
10:55:26.934;109125.0;-381.0
10:55:26.974;338092.0;-604.0
10:55:27.014;195092.0;-548.0
10:55:27.054;349653.0;-591.0
10:55:27.094;-302906.0;-932.0
10:55:27.134;123982.0;-911.0
10:55:27.174;298374.0;-744.0
10:55:27.214;141874.0;-830.0
10:55:27.254;268908.0;-804.0
10:55:27.294;243151.0;-724.0
10:55:27.334;295583.0;-440.0
10:55:27.374;306501.0;-804.0
10:55:27.414;85235.0;-754.0
10:55:27.454;199061.0;-577.0
10:55:27.494;-29885.0;-309.0
10:55:27.534;142111.0;2.0
10:55:27.574;214920.0;-60.0
10:55:27.614;551.0;-190.0
10:55:27.654;-11033.0;-11.0
10:55:27.694;-97709.0;220.0
10:55:27.734;-16227.0;387.0
10:55:27.774;40255.0;778.0
10:55:27.814;-88228.0;455.0
10:55:27.854;33540.0;551.0
10:55:27.894;57402.0;871.0
10:55:27.934;-309600.0;1079.0
10:55:27.974;-390799.0;1238.0
10:55:28.014;-194794.0;1039.0
10:55:28.054;-297381.0;1079.0
10:55:28.094;-139976.0;1279.0
10:55:28.134;-78799.0;1182.0
10:55:28.174;-18480.0;927.0
10:55:28.214;-61173.0;972.0
10:55:28.254;-85419.0;968.0
10:55:28.294;-82450.0;1318.0
10:55:28.334;-55361.0;1160.0
10:55:28.374;-374529.0;1207.0
10:55:28.414;-111069.0;1371.0
10:55:28.454;-461379.0;1330.0
10:55:28.494;-463881.0;931.0
10:55:28.534;-484576.0;884.0
10:55:28.574;-465249.0;1098.0
10:55:28.614;-106063.0;835.0
10:55:28.654;-320315.0;885.0
10:55:28.694;-329773.0;738.0
10:55:28.734;-327616.0;551.0
10:55:25.791;-268784.0;314.0
10:55:25.831;65934.0;350.0
10:55:25.871;85957.0;331.0
10:55:25.911;235618.0;407.0
10:55:25.951;295615.0;469.0
10:55:25.991;337538.0;593.0
10:55:26.031;302689.0;354.0
10:55:26.071;-218919.0;251.0
10:55:26.111;266824.0;362.0
10:55:26.151;471143.0;525.0
10:55:26.191;315372.0;772.0
10:55:26.231;408542.0;582.0
10:55:26.271;406488.0;264.0
10:55:26.311;423223.0;157.0
10:55:26.351;416855.0;283.0
10:55:26.391;175827.0;-5.0
10:55:26.431;280806.0;-83.0
10:55:26.471;124112.0;-128.0
10:55:26.511;-2693.0;-155.0
10:55:26.551;-37063.0;-254.0
10:55:26.591;-28268.0;-56.0
10:55:26.631;-16811.0;-64.0
10:55:26.671;-62785.0;-123.0
10:55:26.711;-63355.0;-145.0
10:55:26.751;-62844.0;-126.0
10:55:26.791;-12945.0;-363.0
10:55:26.831;-34942.0;-265.0
10:55:26.871;-296976.0;-221.0
10:55:26.911;-438477.0;-319.0
10:55:26.951;-517206.0;-296.0
10:55:26.991;-141632.0;-308.0
10:55:27.031;-250134.0;-374.0
10:55:27.071;-267458.0;-473.0
10:55:27.111;-214570.0;-597.0
10:55:27.151;-366556.0;-489.0
10:55:27.191;-50323.0;-357.0
10:55:27.231;88772.0;-375.0
10:55:27.271;-137089.0;-594.0
10:55:27.311;-254340.0;-477.0
10:55:27.351;-252367.0;-675.0
10:55:27.391;-5355.0;-851.0
10:55:27.431;-102093.0;-796.0
10:55:27.471;-218357.0;-788.0
10:55:27.511;-238122.0;-812.0
10:55:27.551;-245066.0;-950.0
10:55:27.591;118935.0;-1031.0
10:55:27.631;-120632.0;-1024.0
10:55:27.671;-88876.0;-1888.0
10:55:27.711;146099.0;-1063.0
10:55:27.751;224759.0;-909.0
10:55:27.791;253976.0;-591.0
10:55:27.831;256590.0;-659.0
10:55:27.871;245285.0;-742.0
10:55:27.911;265311.0;-643.0
10:55:27.951;296119.0;-829.0
10:55:27.991;236460.0;-823.0
10:55:28.031;234356.0;-820.0
10:55:28.071;-141088.0;-969.0
10:55:28.111;-284634.0;-1018.0
10:55:28.151;-386650.0;-941.0
10:55:28.191;-139564.0;-874.0
10:55:28.231;-342092.0;-1113.0
10:55:28.271;-274644.0;-1105.0
10:55:28.311;-269934.0;-1150.0
10:55:28.351;-277280.0;-939.0
10:55:28.391;57607.0;-1195.0
10:55:28.431;-74449.0;-925.0
10:55:28.471;-18893.0;-912.0
10:55:28.511;5678.0;-860.0
10:55:28.551;-26638.0;-565.0
10:55:28.591;185333.0;-451.0
10:55:28.631;179987.0;-502.0
10:55:28.671;83042.0;-701.0
10:55:28.711;97077.0;-661.0
10:55:28.751;-30495.0;-639.0
10:55:28.791;100940.0;-482.0
10:55:28.831;-117062.0;-537.0
10:55:28.871;99853.0;-504.0
10:55:28.911;158128.0;-444.0
10:55:28.951;171626.0;-357.0
10:55:28.991;180789.0;-277.0
10:55:29.031;156564.0;-331.0
10:55:29.071;155895.0;-517.0
10:55:29.111;137228.0;-498.0
10:55:29.151;106889.0;-507.0
10:55:29.191;85622.0;-486.0
10:55:29.231;33302.0;-441.0
10:55:29.271;25277.0;-178.0
10:55:29.311;108746.0;-111.0
10:55:29.351;98513.0;-251.0
10:55:29.391;128684.0;-262.0
10:55:29.431;118977.0;-431.0
10:55:29.471;129204.0;-400.0
10:55:29.511;107105.0;-232.0
10:55:29.551;116352.0;-394.0
10:55:29.591;137829.0;-450.0
10:55:29.631;107717.0;-621.0
10:55:29.671;102581.0;-860.0
10:55:29.711;86483.0;1215.0
10:55:29.751;70241.0;1003.0
10:55:26.820;72437.0;152.0
10:55:26.860;42522.0;-1033.0
10:55:26.900;32297.0;-1425.0
10:55:26.940;24820.0;-1267.0
10:55:26.980;12109.0;-262.0
10:55:27.020;9428.0;146.0
10:55:27.060;43680.0;1.0
10:55:27.100;54816.0;-78.0
10:55:27.140;35841.0;-345.0
10:55:27.180;24517.0;-488.0
10:55:27.220;8742.0;-432.0
10:55:27.260;28884.0;-282.0
10:55:27.300;26492.0;-567.0
10:55:27.340;75965.0;-486.0
10:55:27.380;60543.0;251.0
10:55:27.420;-215298.0;147.0
10:55:27.460;-362162.0;-195.0
10:55:27.500;-345110.0;-299.0
10:55:27.540;-85727.0;183.0
10:55:27.580;-265813.0;336.0
10:55:27.620;-53806.0;40.0
10:55:27.660;46039.0;-324.0
10:55:27.700;79842.0;-19.0
10:55:27.740;105374.0;134.0
10:55:27.780;115220.0;-229.0
10:55:27.820;103814.0;-413.0
10:55:27.860;104681.0;213.0
10:55:27.900;77757.0;384.0
10:55:27.940;-2982.0;-62.0
10:55:27.980;16017.0;-236.0
10:55:28.020;30225.0;-266.0
10:55:28.060;36600.0;-34.0
10:55:28.100;-120194.0;-103.0
10:55:28.140;-75225.0;-331.0
10:55:28.180;-151556.0;-469.0
10:55:28.220;-171246.0;-534.0
10:55:28.260;-207423.0;-342.0
10:55:28.300;-161832.0;-543.0
10:55:28.340;-90868.0;-533.0
10:55:28.380;39762.0;-493.0
10:55:28.420;80613.0;-232.0
10:55:28.460;100823.0;213.0
10:55:28.500;97280.0;198.0
10:55:28.540;66722.0;-329.0
10:55:28.580;45412.0;-526.0
10:55:28.620;65410.0;-381.0
10:55:28.660;101384.0;-249.0
10:55:28.700;116345.0;-161.0
10:55:28.740;83653.0;-44.0
10:55:28.780;111639.0;-68.0
10:55:28.820;88325.0;-38.0
10:55:28.860;86973.0;5.0
10:55:28.900;72503.0;-455.0
10:55:28.940;47824.0;-533.0
10:55:28.980;-297286.0;-405.0
10:55:29.020;-109085.0;-244.0
10:55:29.060;-20024.0;-246.0
10:55:29.100;19532.0;-343.0
10:55:29.140;46748.0;42.0
10:55:29.180;-535618.0;-17.0
10:55:29.220;-188242.0;-264.0
10:55:29.260;-21805.0;-605.0
10:55:29.300;68709.0;-515.0
10:55:29.340;92479.0;-684.0
10:55:29.380;89128.0;-662.0
10:55:29.420;117360.0;-609.0
10:55:29.460;125948.0;-523.0
10:55:29.500;111878.0;-689.0
10:55:29.540;76074.0;-567.0
10:55:29.580;83992.0;-310.0
10:55:29.620;69501.0;-227.0
10:55:29.660;54114.0;-209.0
10:55:29.700;78047.0;-403.0
10:55:29.740;82041.0;-745.0
10:55:29.780;63276.0;-864.0
10:55:29.820;34758.0;-976.0
10:55:29.860;6494.0;-880.0
10:55:29.900;-5741.0;-124.0
10:55:29.940;-5804.0;-623.0
10:55:29.980;-292.0;-679.0
10:55:30.020;23190.0;-646.0
10:55:30.060;16129.0;-527.0
10:55:30.100;28534.0;-462.0
10:55:30.140;4246.0;-743.0
10:55:30.180;-140111.0;-746.0
10:55:30.220;-40723.0;-668.0
10:55:30.260;-9683.0;-782.0
10:55:30.300;37449.0;-586.0
10:55:30.340;53913.0;-583.0
10:55:30.380;35882.0;-663.0
10:55:30.420;-504935.0;-803.0
10:55:30.460;-181887.0;-814.0
10:55:30.500;7895.0;-531.0
10:55:30.540;60007.0;-613.0
10:55:30.580;70435.0;-768.0
10:55:30.620;77570.0;-681.0
10:55:30.660;75713.0;-524.0
10:55:30.700;-549186.0;-756.0
10:55:30.740;-169453.0;-543.0
10:55:30.780;11133.0;-514.0
10:55:27.990;69600.0;-493.0
10:55:28.030;113719.0;-746.0
10:55:28.070;99679.0;-970.0
10:55:28.110;333662.0;-737.0
10:55:28.150;202795.0;-844.0
10:55:28.190;110803.0;-866.0
10:55:28.230;72113.0;-992.0
10:55:28.270;39446.0;-902.0
10:55:28.310;272597.0;-599.0
10:55:28.350;125815.0;-506.0
10:55:28.390;-59157.0;-606.0
10:55:28.430;-49143.0;-629.0
10:55:28.470;-29145.0;-590.0
10:55:28.510;228677.0;-612.0
10:55:28.550;90650.0;-552.0
10:55:28.590;29085.0;-692.0
10:55:28.630;5266.0;-711.0
10:55:28.670;-22589.0;-852.0
10:55:28.710;215084.0;-586.0
10:55:28.750;100278.0;-179.0
10:55:28.790;45221.0;-596.0
10:55:28.830;-1901.0;-572.0
10:55:28.870;989.0;-487.0
10:55:28.910;207690.0;-291.0
10:55:28.950;49823.0;-297.0
10:55:28.990;-133357.0;-479.0
10:55:29.030;141022.0;-543.0
10:55:29.070;24564.0;-578.0
10:55:29.110;203721.0;-509.0
10:55:29.150;-145096.0;-460.0
10:55:29.190;-133119.0;-373.0
10:55:29.230;-89924.0;-759.0
10:55:29.270;-77745.0;-318.0
10:55:29.310;169887.0;106.0
10:55:29.350;42447.0;-239.0
10:55:29.390;-20277.0;-461.0
10:55:29.430;-61005.0;-507.0
10:55:29.470;-55219.0;-281.0
10:55:29.510;176255.0;-517.0
10:55:29.550;39978.0;-900.0
10:55:29.590;-17111.0;-790.0
10:55:29.630;-75535.0;-735.0
10:55:29.670;-51379.0;-911.0
10:55:29.710;129921.0;-815.0
10:55:29.750;8158.0;-688.0
10:55:29.790;-14931.0;-842.0
10:55:29.830;-20625.0;-1087.0
10:55:29.870;-61948.0;-1173.0
10:55:29.910;165255.0;-1151.0
10:55:29.950;17620.0;-1065.0
10:55:29.990;-35466.0;-1031.0
10:55:30.030;-69649.0;-1165.0
10:55:30.070;-60668.0;-1063.0
10:55:30.110;-104134.0;-1091.0
10:55:30.150;-94797.0;-1253.0
10:55:30.190;-74714.0;-1064.0
10:55:30.230;-50756.0;-1028.0
10:55:30.270;-39270.0;-815.0
10:55:30.310;43482.0;-1199.0
10:55:30.350;-88610.0;-1342.0
10:55:30.390;-20298.0;-1148.0
10:55:30.430;206920.0;-976.0
10:55:30.470;-1464.0;-1263.0
10:55:30.510;193905.0;-1171.0
10:55:30.550;73001.0;-970.0
10:55:30.590;-15122.0;-874.0
10:55:30.630;-20788.0;-726.0
10:55:30.670;-28350.0;-1023.0
10:55:30.710;182876.0;-1214.0
10:55:30.750;54948.0;-1019.0
10:55:30.790;-41614.0;-1272.0
10:55:30.830;-41163.0;-1300.0
10:55:30.870;-79906.0;-1599.0
10:55:30.910;148577.0;-1727.0
10:55:30.950;11978.0;-1880.0
10:55:30.990;-39670.0;-1731.0
10:55:31.030;-91699.0;-1567.0
10:55:31.070;-69172.0;-1732.0
10:55:31.110;162701.0;-1620.0
10:55:31.150;64031.0;-1648.0
10:55:31.190;-5811.0;-1488.0
10:55:31.230;-65726.0;-1352.0
10:55:31.270;-60257.0;-1483.0
10:55:31.310;45936.0;-1481.0
10:55:31.350;-4368.0;-1609.0
10:55:31.390;-36404.0;-1687.0
10:55:31.430;-45300.0;-1555.0
10:55:31.470;-10454.0;-1199.0
10:55:31.510;175707.0;-1066.0
10:55:31.550;50495.0;-1032.0
10:55:31.590;-6790.0;-1075.0
10:55:31.630;-47961.0;-891.0
10:55:31.670;-76128.0;-588.0
10:55:31.710;102627.0;-735.0
10:55:31.750;-10954.0;-1124.0
10:55:31.790;36928.0;-967.0
10:55:31.830;-53256.0;-798.0
10:55:31.870;-40460.0;-1039.0
10:55:31.910;48587.0;-1166.0
10:55:31.950;-22118.0;-1141.0
10:55:35.188;-46349.0;-937.0
10:55:35.228;-58905.0;-990.0
10:55:35.268;161817.0;-1152.0
10:55:35.308;1869.0;-1201.0
10:55:35.348;-60734.0;-965.0
10:55:35.388;-103792.0;-539.0
10:55:35.428;-101924.0;-630.0
10:55:35.468;93137.0;-1038.0
10:55:35.508;-10157.0;-1231.0
10:55:35.548;-26230.0;-1048.0
10:55:35.588;-61281.0;-844.0
10:55:35.628;-60830.0;-366.0
10:55:35.668;170142.0;-166.0
10:55:35.708;44054.0;-698.0
10:55:35.748;-51461.0;-1096.0
10:55:35.788;-59572.0;-1386.0
10:55:35.828;-47311.0;-1670.0
10:55:35.868;173445.0;-1379.0
10:55:35.908;59771.0;-1146.0
10:55:35.948;-14951.0;-893.0
10:55:35.988;-69739.0;-148.0
10:55:36.028;-65685.0;-274.0
10:55:36.068;161039.0;-453.0
10:55:36.108;13135.0;-458.0
10:55:36.148;-32275.0;-46.0
10:55:36.188;-36920.0;230.0
10:55:36.228;-75000.0;-247.0
10:55:36.268;155336.0;-456.0
10:55:36.308;6292.0;-290.0
10:55:36.348;183823.0;171.0
10:55:36.388;254540.0;-155.0
10:55:36.428;31589.0;16.0
10:55:36.468;171803.0;109.0
10:55:36.508;226231.0;358.0
10:55:36.548;16279.0;436.0
10:55:36.588;-1098140.0;182.0
10:55:36.628;-302470.0;229.0
10:55:36.668;70716.0;453.0
10:55:36.708;-10850.0;387.0
10:55:36.748;-48985.0;558.0
10:55:36.788;-20261.0;609.0
10:55:36.828;-8983.0;613.0
10:55:36.868;203712.0;653.0
10:55:36.908;84877.0;843.0
10:55:36.948;12757.0;1013.0
10:55:36.988;-38053.0;943.0
10:55:37.028;-42739.0;839.0
10:55:37.068;177479.0;884.0
10:55:37.108;36418.0;747.0
10:55:37.148;-21125.0;1215.0
10:55:37.188;-32190.0;1344.0
10:55:37.228;-43303.0;1163.0
10:55:37.268;171368.0;1201.0
10:55:37.308;12249.0;1589.0
10:55:37.348;-33201.0;1340.0
10:55:37.388;-98791.0;1044.0
10:55:37.428;-90903.0;983.0
10:55:37.468;151917.0;1087.0
10:55:37.508;-3475.0;1215.0
10:55:37.548;-32406.0;1084.0
10:55:37.588;-89896.0;899.0
10:55:37.628;-112828.0;931.0
10:55:37.668;146383.0;892.0
10:55:37.708;15388.0;869.0
10:55:37.748;-27969.0;751.0
10:55:37.788;-54082.0;746.0
10:55:37.828;-73595.0;898.0
10:55:37.868;163746.0;966.0
10:55:37.908;28172.0;979.0
10:55:37.948;-47062.0;644.0
10:55:37.988;-39691.0;580.0
10:55:38.028;-49178.0;835.0
10:55:38.068;163480.0;1070.0
10:55:38.108;40898.0;908.0
10:55:38.148;-11694.0;314.0
10:55:38.188;-43893.0;414.0
10:55:38.228;-51832.0;451.0
10:55:38.268;127950.0;326.0
10:55:38.308;20367.0;97.0
10:55:38.348;-21968.0;203.0
10:55:38.388;-84706.0;310.0
10:55:38.428;-80974.0;82.0
10:55:38.468;151555.0;-127.0
10:55:38.508;31473.0;-198.0
10:55:38.548;-60403.0;-80.0
10:55:38.588;-69912.0;-50.0
10:55:38.628;-90175.0;-245.0
10:55:38.668;-172415.0;-248.0
10:55:38.708;-101185.0;-288.0
10:55:38.748;-80484.0;-130.0
10:55:38.788;174533.0;-137.0
10:55:38.828;276031.0;-93.0
10:55:38.868;-18304.0;-443.0
10:55:38.908;-7369.0;-527.0
10:55:38.948;-27446.0;-544.0
10:55:38.988;-59288.0;-532.0
10:55:39.028;-34168.0;-480.0
10:55:39.068;-428015.0;-364.0
10:55:39.108;-133104.0;-478.0
10:55:39.148;99440.0;-715.0
10:55:36.240;29736.0;-662.0
10:55:36.280;-19060.0;-1151.0
10:55:36.320;6195.0;-677.0
10:55:36.360;17360.0;-236.0
10:55:36.400;3937.0;-338.0
10:55:36.440;218509.0;-596.0
10:55:36.480;103510.0;-422.0
10:55:36.520;-348330.0;-462.0
10:55:36.560;-56994.0;-411.0
10:55:36.600;-25693.0;-489.0
10:55:36.640;-48765.0;-392.0
10:55:36.680;-36921.0;-156.0
10:55:36.720;-309780.0;-254.0
10:55:36.760;-381130.0;-268.0
10:55:36.800;-495878.0;-494.0
10:55:36.840;-152987.0;-267.0
10:55:36.880;-343934.0;-266.0
10:55:36.920;-304218.0;-167.0
10:55:36.960;-243361.0;-509.0
10:55:37.000;-276182.0;-196.0
10:55:37.040;2741.0;-120.0
10:55:37.080;-30173.0;-46.0
10:55:37.120;-164213.0;-58.0
10:55:37.160;-302747.0;28.0
10:55:37.200;-334956.0;-177.0
10:55:37.240;57002.0;-216.0
10:55:37.280;-160712.0;-243.0
10:55:37.320;89216.0;-207.0
10:55:37.360;165080.0;708.0
10:55:37.400;152968.0;398.0
10:55:37.440;166635.0;-77.0
10:55:37.480;120237.0;-373.0
10:55:37.520;53210.0;-385.0
10:55:37.560;73579.0;-775.0
10:55:37.600;4025.0;-922.0
10:55:37.640;114379.0;-489.0
10:55:37.680;178649.0;-187.0
10:55:37.720;158707.0;102.0
10:55:37.760;185745.0;39.0
10:55:37.800;150148.0;18.0
10:55:37.840;150692.0;116.0
10:55:37.880;118351.0;126.0
10:55:37.920;117620.0;259.0
10:55:37.960;110650.0;269.0
10:55:38.000;-303149.0;100.0
10:55:38.040;-342019.0;234.0
10:55:38.080;99344.0;398.0
10:55:38.120;339303.0;603.0
10:55:38.160;209284.0;973.0
10:55:38.200;130127.0;501.0
10:55:38.240;123554.0;337.0
10:55:38.280;92160.0;546.0
10:55:38.320;57267.0;474.0
10:55:38.360;108453.0;587.0
10:55:38.400;96626.0;90.0
10:55:38.440;51907.0;-22.0
10:55:38.480;35279.0;-20.0
10:55:38.520;50996.0;94.0
10:55:38.560;23058.0;118.0
10:55:38.600;4281.0;35.0
10:55:38.640;7820.0;-186.0
10:55:38.680;-2426.0;186.0
10:55:38.720;-7141.0;361.0
10:55:38.760;46711.0;282.0
10:55:38.800;44875.0;79.0
10:55:38.840;56961.0;169.0
10:55:38.880;25397.0;209.0
10:55:38.920;42276.0;172.0
10:55:38.960;61796.0;159.0
10:55:39.000;268188.0;296.0
10:55:39.040;187672.0;787.0
10:55:39.080;75117.0;-28.0
10:55:39.120;-2295.0;72.0
10:55:39.160;-34730.0;148.0
10:55:39.200;-20497.0;433.0
10:55:39.240;-19584.0;548.0
10:55:39.280;-492728.0;295.0
10:55:39.320;-230588.0;12.0
10:55:39.360;-91164.0;186.0
10:55:39.400;-32209.0;-19.0
10:55:39.440;10527.0;-89.0
10:55:39.480;26459.0;16.0
10:55:39.520;8531.0;-188.0
10:55:39.560;18735.0;207.0
10:55:39.600;8619.0;178.0
10:55:39.640;25001.0;78.0
10:55:39.680;42558.0;242.0
10:55:39.720;29779.0;486.0
10:55:39.760;9640.0;-5.0
10:55:39.800;44155.0;-151.0
10:55:39.840;20342.0;-159.0
10:55:39.880;16963.0;153.0
10:55:39.920;63800.0;359.0
10:55:39.960;71952.0;152.0
10:55:40.000;30297.0;-41.0
10:55:40.040;14522.0;-8.0
10:55:40.080;-7493.0;175.0
10:55:40.120;-18626.0;327.0
10:55:40.160;-31406.0;-52.0
10:55:40.200;-29689.0;-248.0
10:55:36.841;-66203.0;-185.0
10:55:36.881;-349836.0;-63.0
10:55:36.921;-355497.0;79.0
10:55:36.961;-125670.0;178.0
10:55:37.001;230595.0;111.0
10:55:37.041;134583.0;85.0
10:55:37.081;104815.0;191.0
10:55:37.121;97990.0;-117.0
10:55:37.161;59606.0;-18.0
10:55:37.201;29783.0;-164.0
10:55:37.241;-574059.0;-49.0
10:55:37.281;-742492.0;-292.0
10:55:37.321;-31021.0;-137.0
10:55:37.361;303570.0;51.0
10:55:37.401;201406.0;186.0
10:55:37.441;353923.0;-254.0
10:55:37.481;-205072.0;-670.0
10:55:37.521;166648.0;-390.0
10:55:37.561;337589.0;-242.0
10:55:37.601;172679.0;-63.0
10:55:37.641;89870.0;-4.0
10:55:37.681;-358270.0;0.0
10:55:37.721;106872.0;-122.0
10:55:37.761;301754.0;-86.0
10:55:37.801;138101.0;103.0
10:55:37.841;285923.0;100.0
10:55:37.881;-9891.0;-316.0
10:55:37.921;211662.0;-6.0
10:55:37.961;312071.0;-219.0
10:55:38.001;38786.0;151.0
10:55:38.041;-10828.0;89.0
10:55:38.081;-260251.0;73.0
10:55:38.121;91267.0;289.0
10:55:38.161;242870.0;257.0
10:55:38.201;56487.0;72.0
10:55:38.241;80963.0;-32.0
10:55:38.281;11734.0;-116.0
10:55:38.321;75851.0;-320.0
10:55:38.361;119582.0;-168.0
10:55:38.401;2859.0;88.0
10:55:38.441;-52864.0;-56.0
10:55:38.481;-63401.0;-194.0
10:55:38.521;-70333.0;-140.0
10:55:38.561;-76163.0;-217.0
10:55:38.601;-52723.0;11.0
10:55:38.641;-55609.0;-42.0
10:55:38.681;-62758.0;-201.0
10:55:38.721;-72271.0;-237.0
10:55:38.761;-22801.0;-25.0
10:55:38.801;-328177.0;45.0
10:55:38.841;-167669.0;18.0
10:55:38.881;-93339.0;-80.0
10:55:38.921;-38297.0;-71.0
10:55:38.961;-9224.0;119.0
10:55:39.001;1531.0;216.0
10:55:39.041;-317867.0;-88.0
10:55:39.081;-459375.0;-204.0
10:55:39.121;-543888.0;-180.0
10:55:39.161;-453287.0;-38.0
10:55:39.201;-124838.0;439.0
10:55:39.241;-218767.0;304.0
10:55:39.281;-221404.0;31.0
10:55:39.321;-503226.0;149.0
10:55:39.361;-422643.0;87.0
10:55:39.401;-53475.0;138.0
10:55:39.441;129489.0;101.0
10:55:39.481;234555.0;13.0
10:55:39.521;271560.0;-278.0
10:55:39.561;240596.0;-71.0
10:55:39.601;274184.0;33.0
10:55:39.641;238838.0;-44.0
10:55:39.681;243430.0;119.0
10:55:39.721;237195.0;-126.0
10:55:39.761;188684.0;-215.0
10:55:39.801;149709.0;-62.0
10:55:39.841;158489.0;44.0
10:55:39.881;122967.0;-27.0
10:55:39.921;118092.0;246.0
10:55:39.961;94062.0;-65.0
10:55:40.001;94530.0;-48.0
10:55:40.041;66957.0;84.0
10:55:40.081;-198786.0;137.0
10:55:40.121;-304581.0;-69.0
10:55:40.161;-290405.0;-130.0
10:55:40.201;-73291.0;80.0
10:55:40.241;-301015.0;388.0
10:55:40.281;-396560.0;-3172.0
10:55:40.321;-239424.0;-1353.0
10:55:40.361;-343124.0;-216.0
10:55:40.401;-21628.0;405.0
10:55:40.441;-217507.0;346.0
10:55:40.481;-333039.0;627.0
10:55:40.521;-322344.0;830.0
10:55:40.561;-334066.0;463.0
10:55:40.601;-8141.0;172.0
10:55:40.641;191668.0;358.0
10:55:40.681;292868.0;90.0
10:55:40.721;312758.0;116.0
10:55:40.761;277984.0;227.0
10:55:40.801;189064.0;312.0
10:55:37.533;209206.0;135.0
10:55:37.573;-215799.0;158.0
10:55:37.613;268951.0;95.0
10:55:37.653;235634.0;295.0
10:55:37.693;-386079.0;177.0
10:55:37.733;-41330.0;304.0
10:55:37.773;124018.0;240.0
10:55:37.813;146785.0;267.0
10:55:37.853;183829.0;321.0
10:55:37.893;188975.0;132.0
10:55:37.933;173452.0;19.0
10:55:37.973;339766.0;-110.0
10:55:38.013;410843.0;134.0
10:55:38.053;223375.0;442.0
10:55:38.093;135831.0;225.0
10:55:38.133;326986.0;181.0
10:55:38.173;142588.0;526.0
10:55:38.213;192308.0;613.0
10:55:38.253;74879.0;200.0
10:55:38.293;12576.0;-21.0
10:55:38.333;-7803.0;224.0
10:55:38.373;8802.0;258.0
10:55:38.413;232293.0;117.0
10:55:38.453;91913.0;353.0
10:55:38.493;16608.0;224.0
10:55:38.533;-9142.0;58.0
10:55:38.573;-9105.0;237.0
10:55:38.613;-14069.0;552.0
10:55:38.653;-40482.0;508.0
10:55:38.693;-36132.0;-20.0
10:55:38.733;-498369.0;-164.0
10:55:38.773;-221101.0;297.0
10:55:38.813;-241831.0;272.0
10:55:38.853;-76326.0;-47.0
10:55:38.893;-6371.0;-19.0
10:55:38.933;47972.0;184.0
10:55:38.973;21706.0;181.0
10:55:39.013;270669.0;-171.0
10:55:39.053;169958.0;-38.0
10:55:39.093;83459.0;109.0
10:55:39.133;51610.0;210.0
10:55:39.173;22437.0;163.0
10:55:39.213;245635.0;334.0
10:55:39.253;95901.0;192.0
10:55:39.293;29900.0;83.0
10:55:39.333;-4691.0;-58.0
10:55:39.373;22397.0;-8.0
10:55:39.413;226178.0;38.0
10:55:39.453;83765.0;33.0
10:55:39.493;33262.0;127.0
10:55:39.533;-1433.0;88.0
10:55:39.573;-5769.0;-42.0
10:55:39.613;196708.0;-179.0
10:55:39.653;63161.0;-114.0
10:55:39.693;-19816.0;7.0
10:55:39.733;-62840.0;-228.0
10:55:39.773;-94385.0;-257.0
10:55:39.813;152691.0;-913.0
10:55:39.853;29046.0;2.0
10:55:39.893;-104697.0;108.0
10:55:39.933;-77284.0;19.0
10:55:39.973;-82969.0;165.0
10:55:40.013;161991.0;366.0
10:55:40.053;46791.0;401.0
10:55:40.093;-14357.0;-318.0
10:55:40.133;-54300.0;-171.0
10:55:40.173;-76578.0;-2.0
10:55:40.213;161696.0;58.0
10:55:40.253;26650.0;-72.0
10:55:40.293;-16927.0;-280.0
10:55:40.333;-35970.0;-139.0
10:55:40.373;19111.0;-67.0
10:55:40.413;197037.0;-314.0
10:55:40.453;21591.0;-236.0
10:55:40.493;33169.0;-130.0
10:55:40.533;-117500.0;42.0
10:55:40.573;128842.0;305.0
10:55:40.613;197684.0;466.0
10:55:40.653;254340.0;227.0
10:55:40.693;18906.0;323.0
10:55:40.733;-74199.0;58.0
10:55:40.773;-126063.0;-77.0
10:55:40.813;105011.0;25.0
10:55:40.853;-10672.0;-71.0
10:55:40.893;-97196.0;85.0
10:55:40.933;-91629.0;-75.0
10:55:40.973;-99967.0;-625.0
10:55:41.013;126470.0;-492.0
10:55:41.053;195507.0;-226.0
10:55:41.093;151766.0;-48.0
10:55:41.133;216075.0;126.0
10:55:41.173;-3498.0;-590.0
10:55:41.213;135568.0;-159.0
10:55:41.253;-31548.0;-105.0
10:55:41.293;-132732.0;148.0
10:55:41.333;-142092.0;274.0
10:55:41.373;-149836.0;140.0
10:55:41.413;85748.0;98.0
10:55:41.453;-43808.0;-242.0
10:55:41.493;-101080.0;-270.0
10:55:38.285;-130439.0;-244.0
10:55:38.325;-108351.0;554.0
10:55:38.365;-169668.0;221.0
10:55:38.405;-151946.0;79.0
10:55:38.445;80707.0;-72.0
10:55:38.485;-22754.0;-91.0
10:55:38.525;-53990.0;-113.0
10:55:38.565;-30950.0;-292.0
10:55:38.605;-43317.0;-191.0
10:55:38.645;3994.0;172.0
10:55:38.685;-49622.0;73.0
10:55:38.725;-85520.0;-147.0
10:55:38.765;-77633.0;-539.0
10:55:38.805;-85819.0;10.0
10:55:38.845;163776.0;411.0
10:55:38.885;31371.0;231.0
10:55:38.925;-8816.0;173.0
10:55:38.965;-51371.0;652.0
10:55:39.005;-74401.0;564.0
10:55:39.045;165898.0;346.0
10:55:39.085;28949.0;442.0
10:55:39.125;202667.0;692.0
10:55:39.165;-232150.0;785.0
10:55:39.205;-135723.0;714.0
10:55:39.245;136826.0;734.0
10:55:39.285;252638.0;874.0
10:55:39.325;-32277.0;1099.0
10:55:39.365;-49436.0;418.0
10:55:39.405;160270.0;-15.0
10:55:39.445;246638.0;-291.0
10:55:39.485;-894819.0;-464.0
10:55:39.525;-416889.0;-172.0
10:55:39.565;-188841.0;-432.0
10:55:39.605;-84005.0;-608.0
10:55:39.645;203596.0;-620.0
10:55:39.685;79506.0;-239.0
10:55:39.725;48890.0;539.0
10:55:39.765;14817.0;77.0
10:55:39.805;-18711.0;351.0
10:55:39.845;216564.0;703.0
10:55:39.885;107735.0;951.0
10:55:39.925;1770.0;719.0
10:55:39.965;-17553.0;446.0
10:55:40.005;-52697.0;451.0
10:55:40.045;188481.0;635.0
10:55:40.085;40341.0;244.0
10:55:40.125;10960.0;-285.0
10:55:40.165;-9846.0;-472.0
10:55:40.205;-41588.0;-400.0
10:55:40.245;184074.0;-216.0
10:55:40.285;70431.0;-536.0
10:55:40.325;-31660.0;-644.0
10:55:40.365;-36979.0;-463.0
10:55:40.405;-16395.0;-389.0
10:55:40.445;186941.0;-496.0
10:55:40.485;58878.0;-1195.0
10:55:40.525;-32111.0;-240.0
10:55:40.565;-74513.0;87.0
10:55:40.605;-69055.0;71.0
10:55:40.645;159732.0;92.0
10:55:40.685;18742.0;332.0
10:55:40.725;-48790.0;526.0
10:55:40.765;-74539.0;-63.0
10:55:40.805;-90034.0;-513.0
10:55:40.845;152031.0;-549.0
10:55:40.885;18972.0;-795.0
10:55:40.925;-29946.0;-937.0
10:55:40.965;-91415.0;-590.0
10:55:41.005;-75204.0;397.0
10:55:41.045;159990.0;1259.0
10:55:41.085;-594581.0;1824.0
10:55:41.125;-267035.0;1992.0
10:55:41.165;-97905.0;1828.0
10:55:41.205;-323166.0;1652.0
10:55:41.245;104086.0;999.0
10:55:41.285;45119.0;1537.0
10:55:41.325;29700.0;2041.0
10:55:41.365;31698.0;2890.0
10:55:41.405;10773.0;3454.0
10:55:41.445;243735.0;4244.0
10:55:41.485;116187.0;4255.0
10:55:41.525;68353.0;3600.0
10:55:41.565;1821.0;2557.0
10:55:41.605;-19031.0;1226.0
10:55:41.645;168108.0;373.0
10:55:41.685;34457.0;-90.0
10:55:41.725;-4995.0;-253.0
10:55:41.765;-25421.0;-51.0
10:55:41.805;95006.0;66.0
10:55:41.845;121087.0;173.0
10:55:41.885;14313.0;-46.0
10:55:41.925;8361.0;-295.0
10:55:41.965;-593260.0;-522.0
10:55:42.005;-247948.0;-569.0
10:55:42.045;-103394.0;-222.0
10:55:42.085;-36584.0;0.0
10:55:42.125;-13843.0;-380.0
10:55:42.165;30437.0;-803.0
10:55:42.205;9107.0;-678.0
10:55:42.245;-175427.0;-187.0
10:55:44.217;-59847.0;286.0
10:55:44.257;230400.0;95.0
10:55:44.297;97107.0;124.0
10:55:44.337;28178.0;-165.0
10:55:44.377;-87.0;-244.0
10:55:44.417;-2358.0;-846.0
10:55:44.457;238633.0;-796.0
10:55:44.497;86601.0;-992.0
10:55:44.537;18860.0;-1322.0
10:55:44.577;-16457.0;-1162.0
10:55:44.617;-31245.0;-420.0
10:55:44.657;210801.0;-108.0
10:55:44.697;104771.0;-503.0
10:55:44.737;41052.0;-697.0
10:55:44.777;6876.0;-652.0
10:55:44.817;-39399.0;-334.0
10:55:44.857;190926.0;-225.0
10:55:44.897;70679.0;-548.0
10:55:44.937;-11847.0;-1460.0
10:55:44.977;190835.0;-690.0
10:55:45.017;65791.0;-395.0
10:55:45.057;212940.0;-606.0
10:55:45.097;34621.0;-651.0
10:55:45.137;-38728.0;-586.0
10:55:45.177;-62140.0;-489.0
10:55:45.217;-77868.0;-888.0
10:55:45.257;144580.0;-751.0
10:55:45.297;-21174.0;-838.0
10:55:45.337;-66483.0;-1126.0
10:55:45.377;-96186.0;-616.0
10:55:45.417;-85115.0;-851.0
10:55:45.457;147823.0;-975.0
10:55:45.497;12679.0;-968.0
10:55:45.537;-32763.0;-1002.0
10:55:45.577;-50242.0;-1648.0
10:55:45.617;-42685.0;-2400.0
10:55:45.657;165120.0;-2195.0
10:55:45.697;-2533.0;-1537.0
10:55:45.737;-63218.0;-1131.0
10:55:45.777;-53493.0;-1021.0
10:55:45.817;-101448.0;-899.0
10:55:45.857;-336465.0;-662.0
10:55:45.897;52634.0;-365.0
10:55:45.937;15020.0;-195.0
10:55:45.977;-25766.0;-674.0
10:55:46.017;-66018.0;-896.0
10:55:46.057;133986.0;-649.0
10:55:46.097;34087.0;-753.0
10:55:46.137;-44598.0;-757.0
10:55:46.177;-67683.0;-855.0
10:55:46.217;-62887.0;-573.0
10:55:46.257;172884.0;-523.0
10:55:46.297;35228.0;-322.0
10:55:46.337;-24414.0;-261.0
10:55:46.377;-44919.0;-199.0
10:55:46.417;-35727.0;-283.0
10:55:46.457;-177928.0;-286.0
10:55:46.497;-118685.0;-162.0
10:55:46.537;-81551.0;-166.0
10:55:46.577;-20448.0;-60.0
10:55:46.617;17113.0;145.0
10:55:46.657;103485.0;334.0
10:55:46.697;49132.0;1196.0
10:55:46.737;41819.0;808.0
10:55:46.777;28539.0;590.0
10:55:46.817;-17630.0;351.0
10:55:46.857;-278067.0;328.0
10:55:46.897;-101082.0;502.0
10:55:46.937;-63190.0;527.0
10:55:46.977;-29447.0;0.0
10:55:47.017;-16377.0;-355.0
10:55:47.057;-570997.0;-393.0
10:55:47.097;-230865.0;-268.0
10:55:47.137;-77216.0;-199.0
10:55:47.177;-3546.0;-499.0
10:55:47.217;274480.0;-373.0
10:55:47.257;-107891.0;-79.0
10:55:47.297;-24445.0;85.0
10:55:47.337;23177.0;-165.0
10:55:47.377;-594643.0;-387.0
10:55:47.417;-208472.0;-94.0
10:55:47.457;-584724.0;90.0
10:55:47.497;71260.0;-251.0
10:55:47.537;366484.0;-671.0
10:55:47.577;246515.0;-497.0
10:55:47.617;414672.0;-384.0
10:55:47.657;-295104.0;-573.0
10:55:47.697;165887.0;-662.0
10:55:47.737;365023.0;-327.0
10:55:47.777;224519.0;-33.0
10:55:47.817;326651.0;-97.0
10:55:47.857;-348979.0;-333.0
10:55:47.897;109975.0;-271.0
10:55:47.937;303807.0;-399.0
10:55:47.977;134772.0;-276.0
10:55:48.017;286635.0;-258.0
10:55:48.057;-217082.0;-481.0
10:55:48.097;132777.0;-516.0
10:55:48.137;283671.0;-410.0
10:55:48.177;105903.0;-213.0
10:55:46.255;246596.0;-102.0
10:55:46.295;89115.0;198.0
10:55:46.335;-11755.0;241.0
10:55:46.375;-24889.0;-291.0
10:55:46.415;178846.0;-378.0
10:55:46.455;14208.0;-105.0
10:55:46.495;-27665.0;-68.0
10:55:46.535;-75733.0;-133.0
10:55:46.575;-92735.0;-222.0
10:55:46.615;148100.0;-88.0
10:55:46.655;-5682.0;62.0
10:55:46.695;-74473.0;22.0
10:55:46.735;-90960.0;-96.0
10:55:46.775;-105091.0;-193.0
10:55:46.815;149320.0;-201.0
10:55:46.855;26380.0;-321.0
10:55:46.895;-28080.0;-384.0
10:55:46.935;-34354.0;272.0
10:55:46.975;-57714.0;-113.0
10:55:47.015;167818.0;-80.0
10:55:47.055;39897.0;-58.0
10:55:47.095;-18496.0;63.0
10:55:47.135;-68387.0;-44.0
10:55:47.175;-86923.0;90.0
10:55:47.215;149081.0;-63.0
10:55:47.255;9237.0;-80.0
10:55:47.295;-53287.0;-76.0
10:55:47.335;-75629.0;8.0
10:55:47.375;-55258.0;344.0
10:55:47.415;151320.0;27.0
10:55:47.455;39802.0;-105.0
10:55:47.495;-16506.0;24.0
10:55:47.535;-70600.0;295.0
10:55:47.575;-50248.0;268.0
10:55:47.615;92187.0;-70.0
10:55:47.655;-15371.0;34.0
10:55:47.695;-73146.0;130.0
10:55:47.735;-108275.0;179.0
10:55:47.775;16937.0;135.0
10:55:47.815;-8607.0;-72.0
10:55:47.855;57996.0;-151.0
10:55:47.895;46841.0;-89.0
10:55:47.935;-27459.0;149.0
10:55:47.975;-61576.0;363.0
10:55:48.015;-202886.0;466.0
10:55:48.055;60960.0;143.0
10:55:48.095;196488.0;192.0
10:55:48.135;49296.0;433.0
10:55:48.175;199077.0;-46.0
10:55:48.215;-409904.0;-187.0
10:55:48.255;-119713.0;-25.0
10:55:48.295;108386.0;-137.0
10:55:48.335;8609.0;-29.0
10:55:48.375;203059.0;-387.0
10:55:48.415;-486276.0;-403.0
10:55:48.455;-4425.0;834.0
10:55:48.495;-18660.0;1140.0
10:55:48.535;-2630.0;102.0
10:55:48.575;137250.0;-289.0
10:55:48.615;-406162.0;-624.0
10:55:48.655;44159.0;-754.0
10:55:48.695;236755.0;-1009.0
10:55:48.735;68635.0;-619.0
10:55:48.775;236549.0;-511.0
10:55:48.815;-416737.0;-539.0
10:55:48.855;-201714.0;-554.0
10:55:48.895;130760.0;-273.0
10:55:48.935;52085.0;-81.0
10:55:48.975;243798.0;-64.0
10:55:49.015;51118.0;-188.0
10:55:49.055;229329.0;-391.0
10:55:49.095;285087.0;-392.0
10:55:49.135;105817.0;-269.0
10:55:49.175;223241.0;1145.0
10:55:49.215;-350677.0;364.0
10:55:49.255;22478.0;-110.0
10:55:49.295;151115.0;61.0
10:55:49.335;8837.0;324.0
10:55:49.375;-52706.0;803.0
10:55:49.415;-150302.0;225.0
10:55:49.455;-117125.0;-357.0
10:55:49.495;-356172.0;-299.0
10:55:49.535;-208254.0;-189.0
10:55:49.575;-112861.0;-201.0
10:55:49.615;-681965.0;-226.0
10:55:49.655;-306616.0;204.0
10:55:49.695;-109860.0;-130.0
10:55:49.735;-148678.0;-161.0
10:55:49.775;-41047.0;-569.0
10:55:49.815;-478943.0;-994.0
10:55:49.855;-110321.0;-1312.0
10:55:49.895;23498.0;-628.0
10:55:49.935;75345.0;-284.0
10:55:49.975;345311.0;-330.0
10:55:50.015;135373.0;-543.0
10:55:50.055;348482.0;-237.0
10:55:50.095;426545.0;-23.0
10:55:50.135;228147.0;-227.0
10:55:50.175;314660.0;-297.0
10:55:50.215;-300469.0;-429.0
10:55:49.346;101776.0;-195.0
10:55:49.386;51117.0;-29.0
10:55:49.426;-685.0;-240.0
10:55:49.466;171316.0;-128.0
10:55:49.506;41354.0;-124.0
10:55:49.546;-12477.0;-34.0
10:55:49.586;-18649.0;-368.0
10:55:49.626;-14091.0;-764.0
10:55:49.666;-21448.0;1321.0
10:55:49.706;-51126.0;1040.0
10:55:49.746;-49826.0;-62.0
10:55:49.786;-15261.0;-751.0
10:55:49.826;-12239.0;-1233.0
10:55:49.866;49323.0;-1530.0
10:55:49.906;7563.0;-1831.0
10:55:49.946;25010.0;-1318.0
10:55:49.986;940.0;-1032.0
10:55:50.026;-24688.0;-723.0
10:55:50.066;-27500.0;-525.0
10:55:50.106;3354.0;-323.0
10:55:50.146;-10371.0;-474.0
10:55:50.186;2886.0;-234.0
10:55:50.226;11221.0;-245.0
10:55:50.266;-7688.0;34.0
10:55:50.306;-318671.0;-18.0
10:55:50.346;-131387.0;-40.0
10:55:50.386;-61605.0;-4.0
10:55:50.426;-6553.0;-64.0
10:55:50.466;18223.0;183.0
10:55:50.506;5000.0;21.0
10:55:50.546;-4765.0;-158.0
10:55:50.586;21845.0;97.0
10:55:50.626;-56689.0;531.0
10:55:50.666;-19834.0;183.0
10:55:50.706;12396.0;-275.0
10:55:50.746;25724.0;-209.0
10:55:50.786;263260.0;-89.0
10:55:50.826;133504.0;-277.0
10:55:50.866;293088.0;-600.0
10:55:50.906;350248.0;-514.0
10:55:50.946;-111162.0;-331.0
10:55:50.986;-87533.0;-34.0
10:55:51.026;-54211.0;-92.0
10:55:51.066;-43933.0;-449.0
10:55:51.106;-53566.0;422.0
10:55:51.146;-33332.0;303.0
10:55:51.186;-37630.0;92.0
10:55:51.226;4175.0;-168.0
10:55:51.266;87995.0;92.0
10:55:51.306;14629.0;455.0
10:55:51.346;14936.0;193.0
10:55:51.386;-26444.0;-216.0
10:55:51.426;-52206.0;-31.0
10:55:51.466;19285.0;193.0
10:55:51.506;-16782.0;119.0
10:55:51.546;-38148.0;-273.0
10:55:51.586;-6248.0;-388.0
10:55:51.626;-41798.0;-315.0
10:55:51.666;-7945.0;-125.0
10:55:51.706;-25466.0;-12.0
10:55:51.746;-12258.0;-322.0
10:55:51.786;-37921.0;-259.0
10:55:51.826;-49196.0;-375.0
10:55:51.866;201063.0;-16.0
10:55:51.906;95192.0;-46.0
10:55:51.946;56788.0;-27.0
10:55:51.986;-13069.0;124.0
10:55:52.026;-21860.0;229.0
10:55:52.066;188936.0;-40.0
10:55:52.106;70523.0;-181.0
10:55:52.146;36125.0;-15.0
10:55:52.186;-21106.0;128.0
10:55:52.226;-43827.0;-109.0
10:55:52.266;183454.0;-123.0
10:55:52.306;27915.0;-38.0
10:55:52.346;-46336.0;92.0
10:55:52.386;-40826.0;630.0
10:55:52.426;-30314.0;573.0
10:55:52.466;184823.0;504.0
10:55:52.506;22349.0;358.0
10:55:52.546;-28871.0;141.0
10:55:52.586;-78295.0;215.0
10:55:52.626;-57287.0;357.0
10:55:52.666;170564.0;192.0
10:55:52.706;21750.0;-62.0
10:55:52.746;196514.0;-179.0
10:55:52.786;265332.0;-106.0
10:55:52.826;29746.0;121.0
10:55:52.866;175529.0;153.0
10:55:52.906;47681.0;-49.0
10:55:52.946;-185354.0;-154.0
10:55:52.986;-167976.0;1093.0
10:55:53.026;-99872.0;468.0
10:55:53.066;128705.0;390.0
10:55:53.106;16635.0;-37.0
10:55:53.146;-32736.0;-108.0
10:55:53.186;-70326.0;26.0
10:55:53.226;-77834.0;15.0
10:55:53.266;140394.0;-262.0
10:55:53.306;7219.0;-332.0
10:55:54.358;-12630.0;-278.0
10:55:54.398;-68103.0;-345.0
10:55:54.438;-65628.0;-247.0
10:55:54.478;-49639.0;-403.0
10:55:54.518;-80567.0;-474.0
10:55:54.558;19653.0;-449.0
10:55:54.598;-36897.0;-385.0
10:55:54.638;-57473.0;-38.0
10:55:54.678;-63925.0;74.0
10:55:54.718;-81742.0;51.0
10:55:54.758;156109.0;80.0
10:55:54.798;-273898.0;-79.0
10:55:54.838;-193077.0;-180.0
10:55:54.878;-131018.0;-154.0
10:55:54.918;-75027.0;-303.0
10:55:54.958;5464.0;-433.0
10:55:54.998;1591.0;-564.0
10:55:55.038;-24524.0;-398.0
10:55:55.078;-8084.0;9.0
10:55:55.118;3272.0;-9.0
10:55:55.158;221302.0;-411.0
10:55:55.198;-232953.0;-692.0
10:55:55.238;-461622.0;-424.0
10:55:55.278;-496943.0;-232.0
10:55:55.318;-499895.0;-198.0
10:55:55.358;-145911.0;-345.0
10:55:55.398;28531.0;-71.0
10:55:55.438;109940.0;44.0
10:55:55.478;115197.0;-165.0
10:55:55.518;106989.0;-238.0
10:55:55.558;65235.0;-71.0
10:55:55.598;78064.0;-224.0
10:55:55.638;55133.0;-140.0
10:55:55.678;-131539.0;-542.0
10:55:55.718;-17731.0;-573.0
10:55:55.758;59651.0;205.0
10:55:55.798;66452.0;40.0
10:55:55.838;77898.0;-202.0
10:55:55.878;62520.0;-738.0
10:55:55.918;-153827.0;-1017.0
10:55:55.958;-62938.0;-1295.0
10:55:55.998;-247203.0;-1043.0
10:55:56.038;-339049.0;-654.0
10:55:56.078;-301752.0;-724.0
10:55:56.118;-255254.0;-827.0
10:55:56.158;7689.0;-91.0
10:55:56.198;-232859.0;151.0
10:55:56.238;8785.0;16.0
10:55:56.278;77018.0;-152.0
10:55:56.318;127693.0;94.0
10:55:56.358;115418.0;487.0
10:55:56.398;95895.0;73.0
10:55:56.438;60507.0;-372.0
10:55:56.478;34689.0;-301.0
10:55:56.518;4015.0;30.0
10:55:56.558;120134.0;235.0
10:55:56.598;168275.0;334.0
10:55:56.638;130779.0;86.0
10:55:56.678;132003.0;35.0
10:55:56.718;100037.0;221.0
10:55:56.758;96187.0;62.0
10:55:56.798;66414.0;-106.0
10:55:56.838;73370.0;-460.0
10:55:56.878;82465.0;-455.0
10:55:56.918;111448.0;-126.0
10:55:56.958;54945.0;-209.0
10:55:56.998;37753.0;-397.0
10:55:57.038;35500.0;-287.0
10:55:57.078;56038.0;-107.0
10:55:57.118;67631.0;66.0
10:55:57.158;283689.0;-221.0
10:55:57.198;366725.0;-334.0
10:55:57.238;-164757.0;-389.0
10:55:57.278;154821.0;-202.0
10:55:57.318;59738.0;455.0
10:55:57.358;5113.0;304.0
10:55:57.398;-34245.0;217.0
10:55:57.438;-47241.0;355.0
10:55:57.478;-58537.0;362.0
10:55:57.518;-26953.0;450.0
10:55:57.558;-44614.0;371.0
10:55:57.598;-9917.0;-18.0
10:55:57.638;-11198.0;-92.0
10:55:57.678;224577.0;-114.0
10:55:57.718;-929627.0;-243.0
10:55:57.758;-153456.0;-28.0
10:55:57.798;203501.0;42.0
10:55:57.838;353945.0;93.0
10:55:57.878;190862.0;-54.0
10:55:57.918;73403.0;-121.0
10:55:57.958;37676.0;-44.0
10:55:57.998;9982.0;-61.0
10:55:58.038;39629.0;425.0
10:55:58.078;28110.0;306.0
10:55:58.118;20987.0;478.0
10:55:58.158;16954.0;298.0
10:55:58.198;-3318.0;99.0
10:55:58.238;-34192.0;427.0
10:55:58.278;-19594.0;544.0
10:55:58.318;15946.0;109.0
10:55:57.718;-16698.0;30.0
10:55:57.758;-6173.0;191.0
10:55:57.798;-35523.0;107.0
10:55:57.838;211519.0;10.0
10:55:57.878;70714.0;-149.0
10:55:57.918;-15499.0;16.0
10:55:57.958;-31215.0;117.0
10:55:57.998;-34784.0;147.0
10:55:58.038;203094.0;130.0
10:55:58.078;77280.0;49.0
10:55:58.118;19894.0;205.0
10:55:58.158;-17999.0;438.0
10:55:58.198;-28310.0;251.0
10:55:58.238;193308.0;90.0
10:55:58.278;23330.0;49.0
10:55:58.318;-25973.0;306.0
10:55:58.358;-28775.0;237.0
10:55:58.398;-55663.0;234.0
10:55:58.438;175682.0;253.0
10:55:58.478;49374.0;279.0
10:55:58.518;3979.0;355.0
10:55:58.558;-48115.0;564.0
10:55:58.598;-38573.0;574.0
10:55:58.638;176258.0;155.0
10:55:58.678;59869.0;-172.0
10:55:58.718;-7332.0;-287.0
10:55:58.758;-50945.0;-175.0
10:55:58.798;-46880.0;1699.0
10:55:58.838;165976.0;1531.0
10:55:58.878;14712.0;134.0
10:55:58.918;-67314.0;-290.0
10:55:58.958;-71605.0;-744.0
10:55:58.998;-80743.0;-888.0
10:55:59.038;143953.0;-1145.0
10:55:59.078;1836.0;-729.0
10:55:59.118;-47201.0;-645.0
10:55:59.158;-91484.0;-480.0
10:55:59.198;-74122.0;-508.0
10:55:59.238;158956.0;-470.0
10:55:59.278;12698.0;-527.0
10:55:59.318;-35619.0;-327.0
10:55:59.358;-74183.0;-274.0
10:55:59.398;-92162.0;-400.0
10:55:59.438;150234.0;-540.0
10:55:59.478;44950.0;-348.0
10:55:59.518;-22457.0;30.0
10:55:59.558;-69254.0;-412.0
10:55:59.598;-54865.0;-512.0
10:55:59.638;-82340.0;-319.0
10:55:59.678;-53644.0;183.0
10:55:59.718;-37455.0;-96.0
10:55:59.758;-67510.0;-227.0
10:55:59.798;-70560.0;-350.0
10:55:59.838;133696.0;-152.0
10:55:59.878;37714.0;-340.0
10:55:59.918;-14597.0;-679.0
10:55:59.958;-56882.0;-709.0
10:55:59.998;-50418.0;-670.0
10:56:00.038;-452370.0;-668.0
10:56:00.078;-218046.0;-702.0
10:56:00.118;-118667.0;-198.0
10:56:00.158;-38797.0;108.0
10:56:00.198;-1926.0;-268.0
10:56:00.238;8549.0;-326.0
10:56:00.278;7050.0;-443.0
10:56:00.318;233055.0;-417.0
10:56:00.358;83513.0;-411.0
10:56:00.398;186612.0;-394.0
10:56:00.438;-469630.0;-570.0
10:56:00.478;18414.0;-416.0
10:56:00.518;226889.0;-396.0
10:56:00.558;89495.0;-252.0
10:56:00.598;266637.0;-278.0
10:56:00.638;-337484.0;-539.0
10:56:00.678;74862.0;-458.0
10:56:00.718;258965.0;-189.0
10:56:00.758;117410.0;105.0
10:56:00.798;260461.0;-450.0
10:56:00.838;-163006.0;-381.0
10:56:00.878;109616.0;-176.0
10:56:00.918;238687.0;-12.0
10:56:00.958;71344.0;-162.0
10:56:00.998;198917.0;-17.0
10:56:01.038;-13756.0;121.0
10:56:01.078;157698.0;-152.0
10:56:01.118;228729.0;-236.0
10:56:01.158;15585.0;-311.0
10:56:01.198;154728.0;-4.0
10:56:01.238;73868.0;-59.0
10:56:01.278;15760.0;-67.0
10:56:01.318;145741.0;-68.0
10:56:01.358;-9536.0;91.0
10:56:01.398;28449.0;24.0
10:56:01.438;-117618.0;-1.0
10:56:01.478;-151630.0;128.0
10:56:01.518;-156259.0;168.0
10:56:01.558;-196694.0;-134.0
10:56:01.598;23527.0;-312.0
10:56:01.638;103799.0;-440.0
10:56:01.678;165409.0;-195.0
10:56:13.753;189715.0;3.0
10:56:13.793;-8996.0;147.0
10:56:13.833;123725.0;253.0
10:56:13.873;-141362.0;-106.0
10:56:13.913;-155291.0;-305.0
10:56:13.953;-171774.0;-245.0
10:56:13.993;-109088.0;266.0
10:56:14.033;-128452.0;82.0
10:56:14.073;-113125.0;192.0
10:56:14.113;-94178.0;46.0
10:56:14.153;-196204.0;69.0
10:56:14.193;-95687.0;-12.0
10:56:14.233;-128638.0;-130.0
10:56:14.273;-516307.0;-367.0
10:56:14.313;-576622.0;-329.0
10:56:14.353;-239119.0;-42.0
10:56:14.393;-85278.0;82.0
10:56:14.433;-322744.0;88.0
10:56:14.473;-369384.0;619.0
10:56:14.513;-340880.0;283.0
10:56:14.553;-347981.0;162.0
10:56:14.593;-3635.0;221.0
10:56:14.633;120504.0;547.0
10:56:14.673;160378.0;452.0
10:56:14.713;176445.0;403.0
10:56:14.753;148259.0;19.0
10:56:14.793;177735.0;49.0
10:56:14.833;166435.0;10.0
10:56:14.873;124976.0;-115.0
10:56:14.913;121429.0;-153.0
10:56:14.953;124528.0;-159.0
10:56:14.993;73195.0;13.0
10:56:15.033;250838.0;-35.0
10:56:15.073;132376.0;-206.0
10:56:15.113;64929.0;-166.0
10:56:15.153;35676.0;-60.0
10:56:15.193;11106.0;71.0
10:56:15.233;34234.0;259.0
10:56:15.273;22773.0;54.0
10:56:15.313;13452.0;162.0
10:56:15.353;44749.0;505.0
10:56:15.393;129055.0;449.0
10:56:15.433;90624.0;187.0
10:56:15.473;15947.0;-195.0
10:56:15.513;-1531.0;-31.0
10:56:15.553;-27589.0;48.0
10:56:15.593;-19673.0;-32.0
10:56:15.633;-538923.0;-302.0
10:56:15.673;-449819.0;-335.0
10:56:15.713;-154604.0;-167.0
10:56:15.753;-40412.0;-236.0
10:56:15.793;3386.0;-393.0
10:56:15.833;52937.0;-227.0
10:56:15.873;82399.0;-201.0
10:56:15.913;82502.0;-209.0
10:56:15.953;74739.0;-183.0
10:56:15.993;105342.0;-208.0
10:56:16.033;-857909.0;-214.0
10:56:16.073;-527079.0;-59.0
10:56:16.113;-494295.0;-237.0
10:56:16.153;-358160.0;162.0
10:56:16.193;41848.0;119.0
10:56:16.233;-176940.0;44.0
10:56:16.273;-232080.0;54.0
10:56:16.313;-793442.0;-26.0
10:56:16.353;-522610.0;25.0
10:56:16.393;-8625.0;306.0
10:56:16.433;8115.0;83.0
10:56:16.473;37345.0;-594.0
10:56:16.513;-16163.0;-725.0
10:56:16.553;18219.0;-782.0
10:56:16.593;219377.0;1312.0
10:56:16.633;-17542.0;1099.0
10:56:16.673;-140322.0;-174.0
10:56:16.713;-72905.0;-770.0
10:56:16.753;-118475.0;-905.0
10:56:16.793;214275.0;-1250.0
10:56:16.833;-18535.0;-1820.0
10:56:16.873;-111780.0;-1313.0
10:56:16.913;-148112.0;-769.0
10:56:16.953;-110373.0;-501.0
10:56:16.993;192459.0;-420.0
10:56:17.033;236709.0;-342.0
10:56:17.073;193086.0;-152.0
10:56:17.113;200012.0;-68.0
10:56:17.153;131569.0;-154.0
10:56:17.193;222439.0;-238.0
10:56:17.233;105994.0;-107.0
10:56:17.273;169786.0;-252.0
10:56:17.313;23556.0;-142.0
10:56:17.353;-68056.0;-402.0
10:56:17.393;86860.0;-951.0
10:56:17.433;206678.0;-309.0
10:56:17.473;213155.0;-72.0
10:56:17.513;234784.0;39.0
10:56:17.553;237729.0;-55.0
10:56:17.593;186881.0;144.0
10:56:17.633;186718.0;341.0
10:56:17.673;208272.0;-27.0
10:56:17.713;193348.0;-176.0
10:56:14.815;169327.0;-160.0
10:56:14.855;177844.0;-412.0
10:56:14.895;119628.0;-250.0
10:56:14.935;117046.0;-314.0
10:56:14.975;117384.0;-117.0
10:56:15.015;112013.0;-53.0
10:56:15.055;100146.0;-3.0
10:56:15.095;63121.0;-136.0
10:56:15.135;81728.0;-409.0
10:56:15.175;72432.0;-653.0
10:56:15.215;75267.0;-292.0
10:56:15.255;284826.0;-179.0
10:56:15.295;-17911.0;-245.0
10:56:15.335;28969.0;-253.0
10:56:15.375;18255.0;-137.0
10:56:15.415;39735.0;18.0
10:56:15.455;37000.0;-315.0
10:56:15.495;-167276.0;-468.0
10:56:15.535;-71385.0;-558.0
10:56:15.575;-2795.0;-271.0
10:56:15.615;-637327.0;-225.0
10:56:15.655;-195850.0;-564.0
10:56:15.695;-35713.0;-515.0
10:56:15.735;31378.0;-56.0
10:56:15.775;95166.0;-36.0
10:56:15.815;90207.0;120.0
10:56:15.855;287600.0;350.0
10:56:15.895;15443.0;150.0
10:56:15.935;-114334.0;-425.0
10:56:15.975;-144077.0;-645.0
10:56:16.015;-50939.0;-341.0
10:56:16.055;-29017.0;-215.0
10:56:16.095;-13810.0;945.0
10:56:16.135;-344972.0;901.0
10:56:16.175;-510669.0;259.0
10:56:16.215;-809108.0;69.0
10:56:16.255;-622808.0;-366.0
10:56:16.295;-483816.0;-1034.0
10:56:16.335;-295131.0;-1105.0
10:56:16.375;-205815.0;-417.0
10:56:16.415;153158.0;51.0
10:56:16.455;11343.0;82.0
10:56:16.495;-80394.0;-179.0
10:56:16.535;-47677.0;-106.0
10:56:16.575;3430.0;-47.0
10:56:16.615;210097.0;118.0
10:56:16.655;129339.0;350.0
10:56:16.695;70000.0;33.0
10:56:16.735;96030.0;-78.0
10:56:16.775;-46225.0;25.0
10:56:16.815;173718.0;270.0
10:56:16.855;-138495.0;509.0
10:56:16.895;-243956.0;184.0
10:56:16.935;-167313.0;142.0
10:56:16.975;-134801.0;311.0
10:56:17.015;168594.0;606.0
10:56:17.055;-108750.0;-33.0
10:56:17.095;-75198.0;-323.0
10:56:17.135;-232698.0;-92.0
10:56:17.175;-140697.0;206.0
10:56:17.215;215319.0;156.0
10:56:17.255;-16292.0;315.0
10:56:17.295;-157041.0;31.0
10:56:17.335;-153739.0;74.0
10:56:17.375;-60745.0;61.0
10:56:17.415;194117.0;-190.0
10:56:17.455;72737.0;-384.0
10:56:17.495;308816.0;-348.0
10:56:17.535;339322.0;-131.0
10:56:17.575;344416.0;-260.0
10:56:17.615;349936.0;769.0
10:56:17.655;309789.0;403.0
10:56:17.695;274988.0;238.0
10:56:17.735;248349.0;363.0
10:56:17.775;233292.0;193.0
10:56:17.815;224473.0;192.0
10:56:17.855;171951.0;-150.0
10:56:17.895;165714.0;-314.0
10:56:17.935;-234102.0;-326.0
10:56:17.975;-403210.0;-492.0
10:56:18.015;-25601.0;-533.0
10:56:18.055;-338898.0;-313.0
10:56:18.095;-183471.0;-302.0
10:56:18.135;-250417.0;-237.0
10:56:18.175;-345268.0;-422.0
10:56:18.215;252397.0;58.0
10:56:18.255;-40154.0;497.0
10:56:18.295;178259.0;239.0
10:56:18.335;233870.0;-42.0
10:56:18.375;259507.0;-191.0
10:56:18.415;241470.0;-127.0
10:56:18.455;225483.0;87.0
10:56:18.495;441456.0;-183.0
10:56:18.535;270952.0;-484.0
10:56:18.575;-320839.0;-570.0
10:56:18.615;-80716.0;-396.0
10:56:18.655;51326.0;-350.0
10:56:18.695;84481.0;-595.0
10:56:18.735;21329.0;-487.0
10:56:18.775;326421.0;-487.0
10:56:15.544;192407.0;-224.0
10:56:15.584;152740.0;-517.0
10:56:15.624;110333.0;-603.0
10:56:15.664;91676.0;-369.0
10:56:15.704;72138.0;-529.0
10:56:15.744;54747.0;-431.0
10:56:15.784;57918.0;-419.0
10:56:15.824;41670.0;-327.0
10:56:15.864;44027.0;-315.0
10:56:15.904;64400.0;-289.0
10:56:15.944;61259.0;-363.0
10:56:15.984;275213.0;-468.0
10:56:16.024;121926.0;-578.0
10:56:16.064;41414.0;-770.0
10:56:16.104;52935.0;13.0
10:56:16.144;26625.0;-101.0
10:56:16.184;205966.0;-148.0
10:56:16.224;67323.0;-202.0
10:56:16.264;30054.0;-310.0
10:56:16.304;-11367.0;-432.0
10:56:16.344;-40373.0;-881.0
10:56:16.384;196649.0;-653.0
10:56:16.424;71832.0;-414.0
10:56:16.464;13460.0;-369.0
10:56:16.504;-50835.0;-620.0
10:56:16.544;-58039.0;-642.0
10:56:16.584;180082.0;-551.0
10:56:16.624;23690.0;-334.0
10:56:16.664;-40556.0;-238.0
10:56:16.704;-70601.0;-315.0
10:56:16.744;-67019.0;-522.0
10:56:16.784;174769.0;-297.0
10:56:16.824;49729.0;-127.0
10:56:16.864;-20760.0;-167.0
10:56:16.904;-62187.0;-147.0
10:56:16.944;-84881.0;185.0
10:56:16.984;163900.0;306.0
10:56:17.024;72222.0;99.0
10:56:17.064;-327393.0;-153.0
10:56:17.104;-182180.0;-338.0
10:56:17.144;-87406.0;-402.0
10:56:17.184;180805.0;-378.0
10:56:17.224;35384.0;1348.0
10:56:17.264;-31655.0;1270.0
10:56:17.304;-29314.0;302.0
10:56:17.344;-58377.0;-394.0
10:56:17.384;189016.0;-597.0
10:56:17.424;58949.0;-777.0
10:56:17.464;-21142.0;-1005.0
10:56:17.504;-33365.0;-611.0
10:56:17.544;-28715.0;-489.0
10:56:17.584;194136.0;-338.0
10:56:17.624;49445.0;-312.0
10:56:17.664;-40785.0;-480.0
10:56:17.704;-58728.0;-247.0
10:56:17.744;-40884.0;-146.0
10:56:17.784;183486.0;20.0
10:56:17.824;58358.0;18.0
10:56:17.864;-2481.0;118.0
10:56:17.904;-15843.0;-21.0
10:56:17.944;-17851.0;-309.0
10:56:17.984;183591.0;-170.0
10:56:18.024;69701.0;-165.0
10:56:18.064;-44114.0;-223.0
10:56:18.104;-63011.0;-137.0
10:56:18.144;-63900.0;10.0
10:56:18.184;158750.0;-200.0
10:56:18.224;28232.0;-326.0
10:56:18.264;-24054.0;-367.0
10:56:18.304;-29542.0;832.0
10:56:18.344;-46800.0;271.0
10:56:18.384;162122.0;81.0
10:56:18.424;38121.0;14.0
10:56:18.464;-48595.0;43.0
10:56:18.504;-66422.0;-30.0
10:56:18.544;-79122.0;-19.0
10:56:18.584;79264.0;-412.0
10:56:18.624;-21288.0;-552.0
10:56:18.664;-65884.0;-541.0
10:56:18.704;-86412.0;-289.0
10:56:18.744;-87340.0;-88.0
10:56:18.784;149078.0;-152.0
10:56:18.824;24631.0;-245.0
10:56:18.864;-3143.0;-261.0
10:56:18.904;-43721.0;-140.0
10:56:18.944;-30961.0;-97.0
10:56:18.984;160631.0;-141.0
10:56:19.024;49245.0;-162.0
10:56:19.064;-15457.0;-42.0
10:56:19.104;-82969.0;502.0
10:56:19.144;-94844.0;347.0
10:56:19.184;53114.0;119.0
10:56:19.224;-28219.0;102.0
10:56:19.264;-77783.0;111.0
10:56:19.304;-105462.0;247.0
10:56:19.344;-67806.0;23.0
10:56:19.384;6701.0;-251.0
10:56:19.424;-25702.0;-186.0
10:56:19.464;-56179.0;-106.0
10:56:19.504;-45946.0;-257.0
10:56:19.492;-58724.0;1418.0
10:56:19.532;-25864.0;153.0
10:56:19.572;-36294.0;-692.0
10:56:19.612;193409.0;-1341.0
10:56:19.652;41643.0;-792.0
10:56:19.692;7162.0;-508.0
10:56:19.732;-48193.0;-9.0
10:56:19.772;-71648.0;81.0
10:56:19.812;168894.0;178.0
10:56:19.852;23992.0;206.0
10:56:19.892;-43320.0;345.0
10:56:19.932;-72416.0;187.0
10:56:19.972;-50748.0;-43.0
10:56:20.012;179462.0;-185.0
10:56:20.052;56569.0;-147.0
10:56:20.092;-19736.0;-273.0
10:56:20.132;-76103.0;31.0
10:56:20.172;-70840.0;69.0
10:56:20.212;166960.0;2.0
10:56:20.252;59039.0;122.0
10:56:20.292;-27590.0;221.0
10:56:20.332;-59453.0;68.0
10:56:20.372;-71116.0;-188.0
10:56:20.412;163446.0;-217.0
10:56:20.452;73395.0;-128.0
10:56:20.492;17878.0;101.0
10:56:20.532;-35453.0;231.0
10:56:20.572;-42324.0;303.0
10:56:20.612;167558.0;137.0
10:56:20.652;28274.0;117.0
10:56:20.692;-64512.0;163.0
10:56:20.732;-80318.0;168.0
10:56:20.772;-82706.0;59.0
10:56:20.812;-608537.0;-90.0
10:56:20.852;-284845.0;420.0
10:56:20.892;-115332.0;563.0
10:56:20.932;-61086.0;173.0
10:56:20.972;-22008.0;118.0
10:56:21.012;232863.0;317.0
10:56:21.052;83925.0;290.0
10:56:21.092;21431.0;309.0
10:56:21.132;-21170.0;-118.0
10:56:21.172;-21023.0;-357.0
10:56:21.212;218479.0;-381.0
10:56:21.252;85749.0;-139.0
10:56:21.292;45661.0;-125.0
10:56:21.332;30310.0;-450.0
10:56:21.372;-27153.0;-473.0
10:56:21.412;198103.0;-363.0
10:56:21.452;65339.0;-19.0
10:56:21.492;-16740.0;-202.0
10:56:21.532;190447.0;-232.0
10:56:21.572;65936.0;17.0
10:56:21.612;207572.0;-47.0
10:56:21.652;43196.0;-45.0
10:56:21.692;-53081.0;-231.0
10:56:21.732;-58929.0;99.0
10:56:21.772;-72707.0;360.0
10:56:21.812;149089.0;310.0
10:56:21.852;5985.0;218.0
10:56:21.892;-59799.0;346.0
10:56:21.932;150199.0;205.0
10:56:21.972;-11628.0;-113.0
10:56:22.012;75886.0;12.0
10:56:22.052;-581980.0;-139.0
10:56:22.092;-447719.0;-322.0
10:56:22.132;-1244404.0;-765.0
10:56:22.172;-279882.0;-468.0
10:56:22.212;168148.0;-342.0
10:56:22.252;150951.0;-288.0
10:56:22.292;346058.0;-287.0
10:56:22.332;228939.0;-215.0
10:56:22.372;90949.0;-81.0
10:56:22.412;285230.0;-261.0
10:56:22.452;102218.0;-197.0
10:56:22.492;61593.0;-9.0
10:56:22.532;15926.0;265.0
10:56:22.572;2438.0;101.0
10:56:22.612;222505.0;-189.0
10:56:22.652;76742.0;26.0
10:56:22.692;-6307.0;354.0
10:56:22.732;-9406.0;-199.0
10:56:22.772;-674307.0;-677.0
10:56:22.812;-201492.0;-582.0
10:56:22.852;-74220.0;-215.0
10:56:22.892;1386.0;-238.0
10:56:22.932;21099.0;-421.0
10:56:22.972;66845.0;-418.0
10:56:23.012;261130.0;-315.0
10:56:23.052;135116.0;-265.0
10:56:23.092;62282.0;-468.0
10:56:23.132;25887.0;-531.0
10:56:23.172;-327383.0;3.0
10:56:23.212;19274.0;-35.0
10:56:23.252;43159.0;8.0
10:56:23.292;27074.0;-41.0
10:56:23.332;22413.0;-89.0
10:56:23.372;14019.0;160.0
10:56:23.412;240764.0;251.0
10:56:23.452;-179884.0;36.0
10:56:21.154;-66914.0;-89.0
10:56:21.194;-10451.0;-433.0
10:56:21.234;-105958.0;-375.0
10:56:21.274;-41025.0;-36.0
10:56:21.314;-73896.0;-33.0
10:56:21.354;-13781.0;-280.0
10:56:21.394;-8646.0;-306.0
10:56:21.434;131888.0;-232.0
10:56:21.474;54949.0;-124.0
10:56:21.514;42278.0;-214.0
10:56:21.554;46593.0;5.0
10:56:21.594;94612.0;87.0
10:56:21.634;3206.0;215.0
10:56:21.674;68431.0;360.0
10:56:21.714;91066.0;494.0
10:56:21.754;30619.0;266.0
10:56:21.794;229487.0;-2.0
10:56:21.834;-448240.0;-206.0
10:56:21.874;-61188.0;-28.0
10:56:21.914;94279.0;55.0
10:56:21.954;25224.0;1697.0
10:56:21.994;203152.0;501.0
10:56:22.034;-255938.0;31.0
10:56:22.074;101188.0;-23.0
10:56:22.114;248699.0;-214.0
10:56:22.154;119389.0;-114.0
10:56:22.194;6056.0;-187.0
10:56:22.234;-172585.0;-456.0
10:56:22.274;-94030.0;-462.0
10:56:22.314;-67681.0;-431.0
10:56:22.354;-24422.0;-463.0
10:56:22.394;-33947.0;-305.0
10:56:22.434;-272925.0;854.0
10:56:22.474;-125142.0;149.0
10:56:22.514;-33719.0;-100.0
10:56:22.554;31297.0;-122.0
10:56:22.594;13495.0;-205.0
10:56:22.634;15005.0;127.0
10:56:22.674;97170.0;-221.0
10:56:22.714;139797.0;-514.0
10:56:22.754;163461.0;-353.0
10:56:22.794;175636.0;-338.0
10:56:22.834;119162.0;-365.0
10:56:22.874;177802.0;-436.0
10:56:22.914;-187102.0;-206.0
10:56:22.954;-89755.0;-264.0
10:56:22.994;-55783.0;145.0
10:56:23.034;-36499.0;592.0
10:56:23.074;-38684.0;236.0
10:56:23.114;-21409.0;-222.0
10:56:23.154;-53191.0;-328.0
10:56:23.194;-38669.0;16.0
10:56:23.234;-283935.0;390.0
10:56:23.274;-645472.0;-271.0
10:56:23.314;-264076.0;-372.0
10:56:23.354;-68217.0;-390.0
10:56:23.394;-395673.0;-332.0
10:56:23.434;-321242.0;-358.0
10:56:23.474;-278268.0;-295.0
10:56:23.514;-264992.0;-183.0
10:56:23.554;-7988.0;-76.0
10:56:23.594;-202027.0;-34.0
10:56:23.634;91182.0;-176.0
10:56:23.674;185283.0;-527.0
10:56:23.714;218675.0;-544.0
10:56:23.754;208604.0;-349.0
10:56:23.794;202721.0;-198.0
10:56:23.834;159739.0;-41.0
10:56:23.874;165870.0;-331.0
10:56:23.914;142868.0;-305.0
10:56:23.954;111941.0;-58.0
10:56:23.994;102859.0;68.0
10:56:24.034;72554.0;62.0
10:56:24.074;83485.0;-321.0
10:56:24.114;49693.0;-380.0
10:56:24.154;42519.0;-216.0
10:56:24.194;-170547.0;-560.0
10:56:24.234;-254828.0;36.0
10:56:24.274;-446331.0;-250.0
10:56:24.314;-306676.0;-35.0
10:56:24.354;-46302.0;-55.0
10:56:24.394;61963.0;44.0
10:56:24.434;164966.0;12.0
10:56:24.474;397357.0;-299.0
10:56:24.514;340101.0;-489.0
10:56:24.554;252586.0;-465.0
10:56:24.594;-126611.0;-338.0
10:56:24.634;-318405.0;-493.0
10:56:24.674;-406109.0;-370.0
10:56:24.714;-287220.0;-165.0
10:56:24.754;-13558.0;-90.0
10:56:24.794;-78900.0;-296.0
10:56:24.834;-80755.0;-479.0
10:56:24.874;-127794.0;-585.0
10:56:24.914;-62016.0;-381.0
10:56:24.954;126060.0;-672.0
10:56:24.994;69891.0;-638.0
10:56:25.034;-122146.0;-390.0
10:56:25.074;-264619.0;-151.0
10:56:25.114;-292277.0;54.0
10:56:24.646;15102.0;-185.0
10:56:24.686;144314.0;-273.0
10:56:24.726;190060.0;-7.0
10:56:24.766;191322.0;222.0
10:56:24.806;-386373.0;849.0
10:56:24.846;-14614.0;260.0
10:56:24.886;112880.0;138.0
10:56:24.926;168726.0;365.0
10:56:24.966;-375945.0;344.0
10:56:25.006;-44632.0;300.0
10:56:25.046;136742.0;187.0
10:56:25.086;180999.0;-31.0
10:56:25.126;200073.0;-27.0
10:56:25.166;-262521.0;-66.0
10:56:25.206;238726.0;-152.0
10:56:25.246;452531.0;1284.0
10:56:25.286;295130.0;1205.0
10:56:25.326;437428.0;211.0
10:56:25.366;-58778.0;-299.0
10:56:25.406;264979.0;-317.0
10:56:25.446;389814.0;-497.0
10:56:25.486;222628.0;-596.0
10:56:25.526;343889.0;-312.0
10:56:25.566;34000.0;-210.0
10:56:25.606;242230.0;-33.0
10:56:25.646;324057.0;-174.0
10:56:25.686;130505.0;-110.0
10:56:25.726;145652.0;-3.0
10:56:25.766;41109.0;47.0
10:56:25.806;124097.0;-111.0
10:56:25.846;169907.0;13.0
10:56:25.886;-6642.0;-80.0
10:56:25.926;115281.0;770.0
10:56:25.966;137670.0;206.0
10:56:26.006;-154428.0;48.0
10:56:26.046;-235957.0;6.0
10:56:26.086;-116427.0;127.0
10:56:26.126;-127424.0;155.0
10:56:26.166;-102049.0;107.0
10:56:26.206;-65386.0;-218.0
10:56:26.246;-46906.0;-433.0
10:56:26.286;-66655.0;-486.0
10:56:26.326;-30678.0;-525.0
10:56:26.366;-8091.0;-540.0
10:56:26.406;-40436.0;-44.0
10:56:26.446;-41839.0;-347.0
10:56:26.486;-66796.0;-487.0
10:56:26.526;-39994.0;-252.0
10:56:26.566;-42938.0;-168.0
10:56:26.606;-14456.0;-356.0
10:56:26.646;-33096.0;-789.0
10:56:26.686;-4145.0;-492.0
10:56:26.726;-38300.0;-194.0
10:56:26.766;-60141.0;-482.0
10:56:26.806;-200573.0;-660.0
10:56:26.846;-301023.0;-479.0
10:56:26.886;-223172.0;-346.0
10:56:26.926;-262003.0;-435.0
10:56:26.966;-294417.0;-722.0
10:56:27.006;-451711.0;-1249.0
10:56:27.046;-395279.0;-489.0
10:56:27.086;-130433.0;-385.0
10:56:27.126;-282322.0;-332.0
10:56:27.166;-430473.0;-162.0
10:56:27.206;-480075.0;27.0
10:56:27.246;-457629.0;-71.0
10:56:27.286;33237.0;-320.0
10:56:27.326;-136741.0;-208.0
10:56:27.366;-24054.0;-135.0
10:56:27.406;-144304.0;-263.0
10:56:27.446;-50349.0;-311.0
10:56:27.486;181313.0;-186.0
10:56:27.526;49407.0;-190.0
10:56:27.566;-14446.0;-71.0
10:56:27.606;168673.0;-103.0
10:56:27.646;266035.0;-233.0
10:56:27.686;259242.0;-304.0
10:56:27.726;283447.0;-404.0
10:56:27.766;276454.0;-250.0
10:56:27.806;258102.0;-149.0
10:56:27.846;217156.0;-226.0
10:56:27.886;-303602.0;-383.0
10:56:27.926;-31537.0;-231.0
10:56:27.966;103843.0;-113.0
10:56:28.006;172905.0;-266.0
10:56:28.046;199776.0;-155.0
10:56:28.086;153026.0;115.0
10:56:28.126;34386.0;-86.0
10:56:28.166;209378.0;-91.0
10:56:28.206;57066.0;-303.0
10:56:28.246;-57193.0;-64.0
10:56:28.286;18134.0;-158.0
10:56:28.326;-74750.0;-487.0
10:56:28.366;3208.0;1445.0
10:56:28.406;-76308.0;1283.0
10:56:28.446;-220539.0;193.0
10:56:28.486;-60383.0;-447.0
10:56:28.526;77659.0;-814.0
10:56:28.566;118512.0;-1120.0
10:56:28.606;138590.0;-1473.0
10:56:27.312;84622.0;-960.0
10:56:27.352;148269.0;-480.0
10:56:27.392;179123.0;-249.0
10:56:27.432;211049.0;-89.0
10:56:27.472;143911.0;-107.0
10:56:27.512;-514592.0;-153.0
10:56:27.552;-141493.0;-196.0
10:56:27.592;-1084.0;110.0
10:56:27.632;92798.0;-16.0
10:56:27.672;122670.0;156.0
10:56:27.712;-336239.0;-39.0
10:56:27.752;-81952.0;-43.0
10:56:27.792;80145.0;225.0
10:56:27.832;117350.0;465.0
10:56:27.872;138652.0;96.0
10:56:27.912;96356.0;-276.0
10:56:27.952;106156.0;-198.0
10:56:27.992;102314.0;-114.0
10:56:28.032;118463.0;1780.0
10:56:28.072;80981.0;1086.0
10:56:28.112;-113226.0;55.0
10:56:28.152;-143970.0;-384.0
10:56:28.192;-95921.0;-961.0
10:56:28.232;46481.0;-1404.0
10:56:28.272;14140.0;-1598.0
10:56:28.312;6433.0;-901.0
10:56:28.352;8299.0;-604.0
10:56:28.392;61842.0;-470.0
10:56:28.432;49075.0;-259.0
10:56:28.472;-212330.0;-77.0
10:56:28.512;-266556.0;65.0
10:56:28.552;-361451.0;-300.0
10:56:28.592;-323540.0;-78.0
10:56:28.632;-9504.0;384.0
10:56:28.672;-630179.0;188.0
10:56:28.712;-408824.0;-104.0
10:56:28.752;-359979.0;58.0
10:56:28.792;-256745.0;53.0
10:56:28.832;38211.0;492.0
10:56:28.872;3103.0;106.0
10:56:28.912;32016.0;74.0
10:56:28.952;-47995.0;-6.0
10:56:28.992;15092.0;-171.0
10:56:29.032;179819.0;90.0
10:56:29.072;-45175.0;67.0
10:56:29.112;181801.0;-284.0
10:56:29.152;198009.0;-371.0
10:56:29.192;4293.0;-536.0
10:56:29.232;96742.0;-505.0
10:56:29.272;-91785.0;-551.0
10:56:29.312;127626.0;-314.0
10:56:29.352;229159.0;-104.0
10:56:29.392;236856.0;-195.0
10:56:29.432;243335.0;-481.0
10:56:29.472;236679.0;373.0
10:56:29.512;-16049.0;176.0
10:56:29.552;-116986.0;160.0
10:56:29.592;-133861.0;81.0
10:56:29.632;60332.0;-168.0
10:56:29.672;158511.0;92.0
10:56:29.712;196100.0;190.0
10:56:29.752;197741.0;-107.0
10:56:29.792;-186891.0;-233.0
10:56:29.832;14055.0;-612.0
10:56:29.872;98671.0;966.0
10:56:29.912;153868.0;1085.0
10:56:29.952;164117.0;373.0
10:56:29.992;142349.0;-235.0
10:56:30.032;145639.0;-782.0
10:56:30.072;-201352.0;-1249.0
10:56:30.112;-272966.0;-1020.0
10:56:30.152;-236973.0;-687.0
10:56:30.192;-248699.0;523.0
10:56:30.232;5639.0;-22.0
10:56:30.272;103088.0;59.0
10:56:30.312;62076.0;-138.0
10:56:30.352;42932.0;-50.0
10:56:30.392;-12130.0;-20.0
10:56:30.432;87787.0;-268.0
10:56:30.472;-66116.0;-328.0
10:56:30.512;64510.0;-502.0
10:56:30.552;137391.0;-387.0
10:56:30.592;168300.0;-34.0
10:56:30.632;132138.0;-220.0
10:56:30.672;107213.0;-329.0
10:56:30.712;98919.0;-473.0
10:56:30.752;94460.0;-196.0
10:56:30.792;66341.0;142.0
10:56:30.832;78782.0;168.0
10:56:30.872;56854.0;-267.0
10:56:30.912;46619.0;-258.0
10:56:30.952;60070.0;-369.0
10:56:30.992;66222.0;-411.0
10:56:31.032;93885.0;-455.0
10:56:31.072;115082.0;-90.0
10:56:31.112;115612.0;384.0
10:56:31.152;75350.0;-132.0
10:56:31.192;71516.0;-314.0
10:56:31.232;25201.0;-237.0
10:56:31.272;-597456.0;20.0
10:56:33.658;-198969.0;-16.0
10:56:33.698;13348.0;-240.0
10:56:33.738;85567.0;-443.0
10:56:33.778;81218.0;-430.0
10:56:33.818;322984.0;-343.0
10:56:33.858;171355.0;-364.0
10:56:33.898;131397.0;-412.0
10:56:33.938;96986.0;-416.0
10:56:33.978;103844.0;-196.0
10:56:34.018;291838.0;-322.0
10:56:34.058;172075.0;-14.0
10:56:34.098;90177.0;25.0
10:56:34.138;-7147.0;47.0
10:56:34.178;-21776.0;280.0
10:56:34.218;208850.0;641.0
10:56:34.258;85958.0;-46.0
10:56:34.298;18269.0;-307.0
10:56:34.338;-12447.0;-309.0
10:56:34.378;-36367.0;-161.0
10:56:34.418;37670.0;-65.0
10:56:34.458;-34178.0;-203.0
10:56:34.498;-62279.0;-266.0
10:56:34.538;-59901.0;-209.0
10:56:34.578;-32515.0;-142.0
10:56:34.618;-357735.0;-257.0
10:56:34.658;-133046.0;-203.0
10:56:34.698;-66765.0;-294.0
10:56:34.738;-43706.0;-157.0
10:56:34.778;16371.0;112.0
10:56:34.818;68386.0;792.0
10:56:34.858;27802.0;408.0
10:56:34.898;41400.0;255.0
10:56:34.938;36745.0;215.0
10:56:34.978;44709.0;-25.0
10:56:35.018;-434222.0;-54.0
10:56:35.058;57802.0;-268.0
10:56:35.098;44510.0;-283.0
10:56:35.138;55777.0;-71.0
10:56:35.178;45842.0;-282.0
10:56:35.218;-612193.0;-336.0
10:56:35.258;-257197.0;-194.0
10:56:35.298;-98931.0;-121.0
10:56:35.338;5184.0;-440.0
10:56:35.378;37326.0;-468.0
10:56:35.418;-601924.0;-606.0
