'Elapsed time';'ECG1';'ECG2'
'3:05:00.000';-0.29;0.075
'3:05:00.004';-0.405;0.07
'3:05:00.008';-0.37;0.08
'3:05:00.012';-0.255;0.095
'3:05:00.016';-0.29;0.075
'3:05:00.020';-0.41;0.05
'3:05:00.024';-0.39;0.07
'3:05:00.028';-0.275;0.07
'3:05:00.032';-0.295;0
'3:05:00.036';-0.4;0.015
'3:05:00.040';-0.435;0.04
'3:05:00.044';-0.31;0.015
'3:05:00.048';-0.285;0
'3:05:00.052';-0.395;-0.015
'3:05:00.056';-0.395;0.02
'3:05:00.060';-0.335;0.05
'3:05:00.064';-0.285;0.045
'3:05:00.068';-0.4;0.06
'3:05:00.072';-0.425;0.075
'3:05:00.076';-0.345;0.075
'3:05:00.080';-0.23;0
'3:05:00.084';-0.36;-0.04
'3:05:00.088';-0.33;0
'3:05:00.092';-0.24;0.02
'3:05:00.096';-0.125;0.01
'3:05:00.100';-0.19;0.035
'3:05:00.104';-0.21;0.055
'3:05:00.108';-0.115;0.07
'3:05:00.112';0.01;0.075
'3:05:00.116';-0.075;0.1
'3:05:00.120';-0.125;0.15
'3:05:00.124';-0.04;0.215
'3:05:00.128';0.055;0.235
'3:05:00.132';-0.045;0.215
'3:05:00.136';-0.15;0.255
'3:05:00.140';-0.155;0.235
'3:05:00.144';-0.105;0.21
'3:05:00.148';-0.19;0.13
'3:05:00.152';-0.31;0.11
'3:05:00.156';-0.27;0.08
'3:05:00.160';-0.18;-0.015
'3:05:00.164';-0.225;-0.06
'3:05:00.168';-0.38;-0.07
'3:05:00.172';-0.4;-0.02
'3:05:00.176';-0.33;-0.055
'3:05:00.180';-0.38;-0.085
'3:05:00.184';-0.5;-0.105
'3:05:00.188';-0.48;-0.065
'3:05:00.192';-0.39;-0.05
'3:05:00.196';-0.44;-0.1
'3:05:00.200';-0.555;-0.05
'3:05:00.204';-0.56;-0.05
'3:05:00.208';-0.445;-0.035
'3:05:00.212';-0.435;-0.075
'3:05:00.216';-0.545;-0.085
'3:05:00.220';-0.55;-0.095
'3:05:00.224';-0.445;-0.085
'3:05:00.228';-0.415;-0.12
'3:05:00.232';-0.56;-0.11
'3:05:00.236';-0.62;-0.085
'3:05:00.240';-0.52;-0.095
'3:05:00.244';-0.35;-0.07
'3:05:00.248';-0.265;0.005
'3:05:00.252';-0.03;0.17
'3:05:00.256';0.42;0.335
'3:05:00.260';0.895;0.395
'3:05:00.264';1.15;0.425
'3:05:00.268';1.28;0.61
'3:05:00.272';1.13;0.475
'3:05:00.276';0.64;-0.11
'3:05:00.280';-0.06;-0.875
'3:05:00.284';-0.6;-1.415
'3:05:00.288';-0.81;-1.77
'3:05:00.292';-0.78;-2.14
'3:05:00.296';-0.765;-2.385
'3:05:00.300';-0.695;-2.445
'3:05:00.304';-0.49;-2.245
'3:05:00.308';-0.31;-1.77
'3:05:00.312';-0.41;-1.26
'3:05:00.316';-0.515;-0.78
'3:05:00.320';-0.42;-0.41
'3:05:00.324';-0.33;-0.2
'3:05:00.328';-0.425;-0.11
'3:05:00.332';-0.5;-0.04
'3:05:00.336';-0.455;0.015
'3:05:00.340';-0.36;0.07
'3:05:00.344';-0.415;0.055
'3:05:00.348';-0.485;0.12
'3:05:00.352';-0.43;0.1
'3:05:00.356';-0.36;0.085
'3:05:00.360';-0.395;0.08
'3:05:00.364';-0.505;0.115
'3:05:00.368';-0.48;0.125
'3:05:00.372';-0.37;0.135
'3:05:00.376';-0.41;0.125
'3:05:00.380';-0.49;0.15
'3:05:00.384';-0.45;0.185
'3:05:00.388';-0.31;0.22
'3:05:00.392';-0.36;0.2
'3:05:00.396';-0.42;0.155
'3:05:00.400';-0.445;0.2
'3:05:00.404';-0.32;0.23
'3:05:00.408';-0.28;0.23
'3:05:00.412';-0.4;0.25
'3:05:00.416';-0.38;0.29
'3:05:00.420';-0.25;0.355
'3:05:00.424';-0.23;0.325
'3:05:00.428';-0.34;0.31
'3:05:00.432';-0.345;0.335
'3:05:00.436';-0.195;0.33
'3:05:00.440';-0.15;0.39
'3:05:00.444';-0.25;0.4
'3:05:00.448';-0.24;0.45
'3:05:00.452';-0.11;0.485
'3:05:00.456';-0.025;0.49
'3:05:00.460';-0.12;0.53
'3:05:00.464';-0.11;0.575
'3:05:00.468';0.025;0.635
'3:05:00.472';0.115;0.645
'3:05:00.476';0.07;0.675
'3:05:00.480';0.055;0.715
'3:05:00.484';0.18;0.78
'3:05:00.488';0.235;0.79
'3:05:00.492';0.2;0.8
'3:05:00.496';0.15;0.855
'3:05:00.500';0.255;0.895
'3:05:00.504';0.305;0.915
'3:05:00.508';0.225;0.88
'3:05:00.512';0.18;0.915
'3:05:00.516';0.27;0.93
'3:05:00.520';0.255;0.935
'3:05:00.524';0.165;0.855
'3:05:00.528';0.02;0.855
'3:05:00.532';0.065;0.83
'3:05:00.536';0.1;0.82
'3:05:00.540';-0.01;0.76
'3:05:00.544';-0.15;0.72
'3:05:00.548';-0.11;0.695
'3:05:00.552';-0.065;0.665
'3:05:00.556';-0.15;0.595
'3:05:00.560';-0.3;0.535
'3:05:00.564';-0.28;0.465
'3:05:00.568';-0.19;0.44
'3:05:00.572';-0.255;0.35
'3:05:00.576';-0.395;0.345
'3:05:00.580';-0.36;0.34
'3:05:00.584';-0.24;0.28
'3:05:00.588';-0.265;0.255
'3:05:00.592';-0.425;0.225
'3:05:00.596';-0.38;0.205
'3:05:00.600';-0.3;0.19
'3:05:00.604';-0.27;0.115
'3:05:00.608';-0.375;0.13
'3:05:00.612';-0.385;0.155
'3:05:00.616';-0.265;0.12
'3:05:00.620';-0.26;0.105
'3:05:00.624';-0.395;0.11
'3:05:00.628';-0.42;0.15
'3:05:00.632';-0.32;0.125
'3:05:00.636';-0.27;0.135
'3:05:00.640';-0.39;0.105
'3:05:00.644';-0.37;0.13
'3:05:00.648';-0.305;0.155
'3:05:00.652';-0.255;0.13
'3:05:00.656';-0.36;0.11
'3:05:00.660';-0.42;0.14
'3:05:00.664';-0.315;0.14
'3:05:00.668';-0.28;0.13
'3:05:00.672';-0.355;0.105
'3:05:00.676';-0.41;0.16
'3:05:00.680';-0.315;0.19
'3:05:00.684';-0.23;0.215
'3:05:00.688';-0.31;0.18
'3:05:00.692';-0.4;0.19
'3:05:00.696';-0.31;0.24
'3:05:00.700';-0.215;0.2
'3:05:00.704';-0.3;0.15
'3:05:00.708';-0.425;0.15
'3:05:00.712';-0.35;0.16
'3:05:00.716';-0.265;0.145
'3:05:00.720';-0.305;0.125
'3:05:00.724';-0.415;0.125
'3:05:00.728';-0.35;0.13
'3:05:00.732';-0.265;0.13
'3:05:00.736';-0.32;0.11
'3:05:00.740';-0.42;0.145
'3:05:00.744';-0.37;0.13
'3:05:00.748';-0.3;0.135
'3:05:00.752';-0.325;0.135
'3:05:00.756';-0.41;0.12
'3:05:00.760';-0.36;0.1
'3:05:00.764';-0.265;0.07
'3:05:00.768';-0.295;0.005
'3:05:00.772';-0.405;0.065
'3:05:00.776';-0.425;0.08
'3:05:00.780';-0.315;0.08
'3:05:00.784';-0.3;0.065
'3:05:00.788';-0.39;0.09
'3:05:00.792';-0.365;0.085
'3:05:00.796';-0.255;0.06
'3:05:00.800';-0.235;0.08
'3:05:00.804';-0.35;0.08
'3:05:00.808';-0.375;0.115
'3:05:00.812';-0.26;0.12
'3:05:00.816';-0.265;0.085
'3:05:00.820';-0.37;0.06
'3:05:00.824';-0.395;0.065
'3:05:00.828';-0.25;0.055
'3:05:00.832';-0.195;0.09
'3:05:00.836';-0.275;0.06
'3:05:00.840';-0.26;0.105
'3:05:00.844';-0.085;0.115
'3:05:00.848';-0.01;0.11
'3:05:00.852';-0.09;0.155
'3:05:00.856';-0.13;0.195
'3:05:00.860';-0.015;0.27
'3:05:00.864';0.025;0.305
'3:05:00.868';-0.075;0.28
'3:05:00.872';-0.135;0.315
'3:05:00.876';-0.09;0.325
'3:05:00.880';-0.05;0.23
'3:05:00.884';-0.19;0.2
'3:05:00.888';-0.275;0.205
'3:05:00.892';-0.175;0.17
'3:05:00.896';-0.155;0.09
'3:05:00.900';-0.2;0.025
'3:05:00.904';-0.32;0
'3:05:00.908';-0.305;0.04
'3:05:00.912';-0.28;-0.005
'3:05:00.916';-0.385;0
'3:05:00.920';-0.485;0.02
'3:05:00.924';-0.425;0.05
'3:05:00.928';-0.35;0.055
'3:05:00.932';-0.405;0
'3:05:00.936';-0.51;-0.01
'3:05:00.940';-0.465;0.025
'3:05:00.944';-0.345;0.01
'3:05:00.948';-0.375;-0.03
'3:05:00.952';-0.49;-0.06
'3:05:00.956';-0.485;-0.025
'3:05:00.960';-0.38;-0.005
'3:05:00.964';-0.4;-0.035
'3:05:00.968';-0.535;-0.035
'3:05:00.972';-0.56;-0.015
'3:05:00.976';-0.48;0
'3:05:00.980';-0.43;0
'3:05:00.984';-0.36;0.05
'3:05:00.988';-0.12;0.15
'3:05:00.992';0.305;0.34
'3:05:00.996';0.735;0.405
'3:05:01.000';1.045;0.435
'3:05:01.004';1.33;0.65
'3:05:01.008';1.385;0.745
'3:05:01.012';0.91;0.34
'3:05:01.016';0.205;-0.39
'3:05:01.020';-0.33;-1
'3:05:01.024';-0.655;-1.385
'3:05:01.028';-0.765;-1.75
'3:05:01.032';-0.83;-2.065
'3:05:01.036';-0.77;-2.155
'3:05:01.040';-0.54;-2.205
'3:05:01.044';-0.345;-2.02
'3:05:01.048';-0.405;-1.47
'3:05:01.052';-0.48;-0.97
'3:05:01.056';-0.43;-0.57
'3:05:01.060';-0.36;-0.28
'3:05:01.064';-0.455;-0.145
'3:05:01.068';-0.525;-0.035
'3:05:01.072';-0.445;0.025
'3:05:01.076';-0.335;0.02
'3:05:01.080';-0.43;0.04
'3:05:01.084';-0.5;0.085
'3:05:01.088';-0.44;0.13
'3:05:01.092';-0.36;0.16
'3:05:01.096';-0.38;0.145
'3:05:01.100';-0.5;0.08
'3:05:01.104';-0.45;0.105
'3:05:01.108';-0.345;0.12
'3:05:01.112';-0.345;0.115
'3:05:01.116';-0.455;0.11
'3:05:01.120';-0.405;0.145
'3:05:01.124';-0.29;0.175
'3:05:01.128';-0.305;0.155
'3:05:01.132';-0.415;0.17
'3:05:01.136';-0.4;0.21
'3:05:01.140';-0.3;0.25
'3:05:01.144';-0.28;0.175
'3:05:01.148';-0.385;0.195
'3:05:01.152';-0.37;0.2
'3:05:01.156';-0.275;0.215
'3:05:01.160';-0.24;0.23
'3:05:01.164';-0.345;0.265
'3:05:01.168';-0.325;0.3
'3:05:01.172';-0.17;0.28
'3:05:01.176';-0.145;0.29
'3:05:01.180';-0.24;0.335
'3:05:01.184';-0.245;0.4
'3:05:01.188';-0.145;0.425
'3:05:01.192';-0.065;0.425
'3:05:01.196';-0.115;0.445
'3:05:01.200';-0.14;0.505
'3:05:01.204';-0.02;0.515
'3:05:01.208';0.1;0.545
'3:05:01.212';0.035;0.59
'3:05:01.216';0.055;0.645
'3:05:01.220';0.165;0.695
'3:05:01.224';0.285;0.72
'3:05:01.228';0.225;0.73
'3:05:01.232';0.175;0.76
'3:05:01.236';0.23;0.815
'3:05:01.240';0.335;0.785
'3:05:01.244';0.265;0.77
'3:05:01.248';0.18;0.765
'3:05:01.252';0.245;0.775
'3:05:01.256';0.3;0.82
'3:05:01.260';0.195;0.85
'3:05:01.264';0.065;0.815
'3:05:01.268';0.095;0.785
'3:05:01.272';0.145;0.73
'3:05:01.276';0.03;0.69
'3:05:01.280';-0.11;0.675
'3:05:01.284';-0.075;0.665
'3:05:01.288';-0.045;0.645
'3:05:01.292';-0.135;0.56
'3:05:01.296';-0.245;0.565
'3:05:01.300';-0.22;0.535
'3:05:01.304';-0.155;0.475
'3:05:01.308';-0.235;0.395
'3:05:01.312';-0.375;0.33
'3:05:01.316';-0.345;0.285
'3:05:01.320';-0.28;0.25
'3:05:01.324';-0.29;0.215
'3:05:01.328';-0.43;0.215
'3:05:01.332';-0.39;0.205
'3:05:01.336';-0.3;0.195
'3:05:01.340';-0.31;0.105
'3:05:01.344';-0.39;0.085
'3:05:01.348';-0.425;0.1
'3:05:01.352';-0.305;0.095
'3:05:01.356';-0.32;0.07
'3:05:01.360';-0.43;0.07
'3:05:01.364';-0.41;0.085
'3:05:01.368';-0.28;0.055
'3:05:01.372';-0.275;0.04
'3:05:01.376';-0.435;0.04
'3:05:01.380';-0.45;0.065
'3:05:01.384';-0.315;0.06
'3:05:01.388';-0.3;0.06
'3:05:01.392';-0.405;0.09
'3:05:01.396';-0.39;0.1
'3:05:01.400';-0.325;0.135
'3:05:01.404';-0.28;0.065
'3:05:01.408';-0.39;0.035
'3:05:01.412';-0.42;0.095
'3:05:01.416';-0.325;0.11
'3:05:01.420';-0.305;0.1
'3:05:01.424';-0.425;0.085
'3:05:01.428';-0.43;0.095
'3:05:01.432';-0.32;0.1
'3:05:01.436';-0.3;0.12
'3:05:01.440';-0.41;0.085
'3:05:01.444';-0.445;0.135
'3:05:01.448';-0.335;0.14
'3:05:01.452';-0.27;0.115
'3:05:01.456';-0.405;0.075
'3:05:01.460';-0.445;0.08
'3:05:01.464';-0.335;0.08
'3:05:01.468';-0.315;0.045
'3:05:01.472';-0.405;0.06
'3:05:01.476';-0.465;0.07
'3:05:01.480';-0.34;0.08
'3:05:01.484';-0.25;0.095
'3:05:01.488';-0.34;0.08
'3:05:01.492';-0.44;0.075
'3:05:01.496';-0.375;0.09
'3:05:01.500';-0.3;0.075
'3:05:01.504';-0.395;0.015
'3:05:01.508';-0.46;0.015
'3:05:01.512';-0.35;0.025
'3:05:01.516';-0.27;0.075
'3:05:01.520';-0.375;0.065
'3:05:01.524';-0.44;0.05
'3:05:01.528';-0.385;0.075
'3:05:01.532';-0.305;0.075
'3:05:01.536';-0.36;0.05
'3:05:01.540';-0.405;0.02
'3:05:01.544';-0.395;0.03
'3:05:01.548';-0.305;0.04
'3:05:01.552';-0.34;0.035
'3:05:01.556';-0.43;0.055
'3:05:01.560';-0.405;0.055
'3:05:01.564';-0.28;0.04
'3:05:01.568';-0.3;0.045
'3:05:01.572';-0.415;0.05
'3:05:01.576';-0.39;0.09
'3:05:01.580';-0.245;0.065
'3:05:01.584';-0.245;0.065
'3:05:01.588';-0.33;0.02
'3:05:01.592';-0.255;0.025
'3:05:01.596';-0.11;0.035
'3:05:01.600';-0.06;0.105
'3:05:01.604';-0.18;0.14
'3:05:01.608';-0.135;0.17
'3:05:01.612';0.025;0.205
'3:05:01.616';0.08;0.225
'3:05:01.620';-0.055;0.24
'3:05:01.624';-0.145;0.225
'3:05:01.628';-0.06;0.28
'3:05:01.632';-0.025;0.245
'3:05:01.636';-0.18;0.185
'3:05:01.640';-0.25;0.175
'3:05:01.644';-0.14;0.21
'3:05:01.648';-0.11;0.125
'3:05:01.652';-0.195;0.05
'3:05:01.656';-0.285;0.015
'3:05:01.660';-0.245;0
'3:05:01.664';-0.24;0.015
'3:05:01.668';-0.37;0.045
'3:05:01.672';-0.47;0.015
'3:05:01.676';-0.4;0.045
'3:05:01.680';-0.35;0.075
'3:05:01.684';-0.44;0.035
'3:05:01.688';-0.515;0
'3:05:01.692';-0.445;-0.01
'3:05:01.696';-0.345;-0.04
'3:05:01.700';-0.415;-0.025
'3:05:01.704';-0.505;0.015
'3:05:01.708';-0.41;0.025
'3:05:01.712';-0.32;0.025
'3:05:01.716';-0.37;-0.015
'3:05:01.720';-0.465;-0.005
'3:05:01.724';-0.45;0.01
'3:05:01.728';-0.405;0.005
'3:05:01.732';-0.44;0
'3:05:01.736';-0.42;0.03
'3:05:01.740';-0.135;0.13
'3:05:01.744';0.29;0.32
'3:05:01.748';0.65;0.44
'3:05:01.752';0.98;0.51
'3:05:01.756';1.37;0.6
'3:05:01.760';1.495;0.785
'3:05:01.764';1.11;0.77
'3:05:01.768';0.325;0.235
'3:05:01.772';-0.23;-0.46
'3:05:01.776';-0.55;-0.975
'3:05:01.780';-0.77;-1.27
'3:05:01.784';-0.91;-1.575
'3:05:01.788';-0.805;-1.8
'3:05:01.792';-0.555;-1.935
'3:05:01.796';-0.41;-1.95
'3:05:01.800';-0.46;-1.65
'3:05:01.804';-0.44;-1.195
'3:05:01.808';-0.335;-0.795
'3:05:01.812';-0.295;-0.485
'3:05:01.816';-0.405;-0.245
'3:05:01.820';-0.455;-0.08
'3:05:01.824';-0.345;0.035
'3:05:01.828';-0.3;0.05
'3:05:01.832';-0.4;0.095
'3:05:01.836';-0.455;0.125
'3:05:01.840';-0.355;0.145
'3:05:01.844';-0.325;0.145
'3:05:01.848';-0.415;0.13
'3:05:01.852';-0.46;0.13
'3:05:01.856';-0.345;0.16
'3:05:01.860';-0.28;0.135
'3:05:01.864';-0.375;0.145
'3:05:01.868';-0.455;0.19
'3:05:01.872';-0.37;0.21
'3:05:01.876';-0.29;0.185
'3:05:01.880';-0.365;0.155
'3:05:01.884';-0.45;0.205
'3:05:01.888';-0.38;0.195
'3:05:01.892';-0.255;0.195
'3:05:01.896';-0.3;0.195
'3:05:01.900';-0.395;0.215
'3:05:01.904';-0.335;0.255
'3:05:01.908';-0.265;0.28
'3:05:01.912';-0.265;0.23
'3:05:01.916';-0.345;0.255
'3:05:01.920';-0.26;0.275
'3:05:01.924';-0.135;0.29
'3:05:01.928';-0.175;0.31
'3:05:01.932';-0.255;0.365
'3:05:01.936';-0.22;0.42
'3:05:01.940';-0.115;0.38
'3:05:01.944';-0.06;0.335
'3:05:01.948';-0.14;0.365
'3:05:01.952';-0.105;0.465
'3:05:01.956';0.03;0.53
'3:05:01.960';0.05;0.54
'3:05:01.964';-0.045;0.545
'3:05:01.968';-0.015;0.585
'3:05:01.972';0.1;0.66
'3:05:01.976';0.155;0.635
'3:05:01.980';0.08;0.645
'3:05:01.984';0.09;0.715
'3:05:01.988';0.21;0.75
'3:05:01.992';0.245;0.75
'3:05:01.996';0.165;0.785
'3:05:02.000';0.13;0.81
'3:05:02.004';0.19;0.835
'3:05:02.008';0.275;0.82
'3:05:02.012';0.145;0.77
'3:05:02.016';0.065;0.785
'3:05:02.020';0.11;0.79
'3:05:02.024';0.135;0.785
'3:05:02.028';0.03;0.745
'3:05:02.032';-0.095;0.705
'3:05:02.036';-0.06;0.69
'3:05:02.040';-0.02;0.63
'3:05:02.044';-0.14;0.61
'3:05:02.048';-0.27;0.55
'3:05:02.052';-0.185;0.485
'3:05:02.056';-0.12;0.44
'3:05:02.060';-0.25;0.365
'3:05:02.064';-0.37;0.35
'3:05:02.068';-0.31;0.305
'3:05:02.072';-0.255;0.24
'3:05:02.076';-0.315;0.15
'3:05:02.080';-0.415;0.125
'3:05:02.084';-0.38;0.145
'3:05:02.088';-0.275;0.12
'3:05:02.092';-0.31;0.08
'3:05:02.096';-0.45;0.1
'3:05:02.100';-0.425;0.13
'3:05:02.104';-0.33;0.125
'3:05:02.108';-0.34;0.07
'3:05:02.112';-0.425;0.05
'3:05:02.116';-0.4;0.04
'3:05:02.120';-0.295;0.08
'3:05:02.124';-0.305;0.055
'3:05:02.128';-0.39;0.07
'3:05:02.132';-0.345;0.115
'3:05:02.136';-0.21;0.13
'3:05:02.140';-0.16;0.095
'3:05:02.144';-0.23;0.12
'3:05:02.148';-0.245;0.1
'3:05:02.152';-0.16;0.09
'3:05:02.156';-0.18;0.115
'3:05:02.160';-0.36;0.175
'3:05:02.164';-0.4;0.305
'3:05:02.168';-0.345;0.545
'3:05:02.172';-0.545;0.785
'3:05:02.176';-1;0.95
'3:05:02.180';-1.215;0.935
'3:05:02.184';-1.215;0.415
'3:05:02.188';-1.22;-0.62
'3:05:02.192';-1.32;-1.665
'3:05:02.196';-1.355;-2.36
'3:05:02.200';-1.185;-3.025
'3:05:02.204';-1.015;-3.67
'3:05:02.208';-0.96;-4.19
'3:05:02.212';-0.98;-4.445
'3:05:02.216';-1;-4.415
'3:05:02.220';-1.045;-4.26
'3:05:02.224';-1.235;-3.87
'3:05:02.228';-1.385;-3.355
'3:05:02.232';-1.335;-2.92
'3:05:02.236';-1.24;-2.615
'3:05:02.240';-1.225;-2.38
'3:05:02.244';-1.25;-2.065
'3:05:02.248';-1.035;-1.785
'3:05:02.252';-0.79;-1.55
'3:05:02.256';-0.68;-1.405
'3:05:02.260';-0.66;-1.15
'3:05:02.264';-0.5;-0.895
'3:05:02.268';-0.3;-0.695
'3:05:02.272';-0.265;-0.48
'3:05:02.276';-0.34;-0.24
'3:05:02.280';-0.27;-0.03
'3:05:02.284';-0.12;0.1
'3:05:02.288';-0.12;0.175
'3:05:02.292';-0.2;0.285
'3:05:02.296';-0.205;0.38
'3:05:02.300';-0.045;0.405
'3:05:02.304';-0.02;0.445
'3:05:02.308';-0.12;0.495
'3:05:02.312';-0.115;0.555
'3:05:02.316';0.05;0.575
'3:05:02.320';0.055;0.61
'3:05:02.324';-0.005;0.645
'3:05:02.328';0.055;0.69
'3:05:02.332';0.24;0.72
'3:05:02.336';0.335;0.745
'3:05:02.340';0.285;0.775
'3:05:02.344';0.295;0.875
'3:05:02.348';0.51;0.91
'3:05:02.352';0.615;1
'3:05:02.356';0.555;1.07
'3:05:02.360';0.6;1.17
'3:05:02.364';0.78;1.275
'3:05:02.368';0.89;1.34
'3:05:02.372';0.835;1.39
'3:05:02.376';0.815;1.515
'3:05:02.380';0.92;1.61
'3:05:02.384';1.015;1.66
'3:05:02.388';0.95;1.695
'3:05:02.392';0.87;1.83
'3:05:02.396';0.975;1.835
'3:05:02.400';1.085;1.775
'3:05:02.404';1.02;1.795
'3:05:02.408';0.925;1.91
'3:05:02.412';0.925;2.025
'3:05:02.416';0.97;2.11
'3:05:02.420';0.865;2.175
'3:05:02.424';0.76;2.175
'3:05:02.428';0.715;2.245
'3:05:02.432';0.775;2.255
'3:05:02.436';0.665;2.22
'3:05:02.440';0.515;2.21
'3:05:02.444';0.49;2.155
'3:05:02.448';0.52;2.065
'3:05:02.452';0.455;1.93
'3:05:02.456';0.28;1.875
'3:05:02.460';0.225;1.78
'3:05:02.464';0.27;1.65
'3:05:02.468';0.215;1.5
'3:05:02.472';0.015;1.375
'3:05:02.476';-0.025;1.275
'3:05:02.480';0.035;1.2
'3:05:02.484';-0.005;1.025
'3:05:02.488';-0.15;0.94
'3:05:02.492';-0.21;0.885
'3:05:02.496';-0.16;0.795
'3:05:02.500';-0.135;0.67
'3:05:02.504';-0.25;0.615
'3:05:02.508';-0.345;0.605
'3:05:02.512';-0.275;0.555
'3:05:02.516';-0.21;0.49
'3:05:02.520';-0.32;0.395
'3:05:02.524';-0.44;0.395
'3:05:02.528';-0.34;0.39
'3:05:02.532';-0.28;0.335
'3:05:02.536';-0.34;0.26
'3:05:02.540';-0.47;0.23
'3:05:02.544';-0.41;0.22
'3:05:02.548';-0.31;0.185
'3:05:02.552';-0.355;0.165
'3:05:02.556';-0.465;0.18
'3:05:02.560';-0.435;0.155
'3:05:02.564';-0.35;0.17
'3:05:02.568';-0.37;0.135
'3:05:02.572';-0.465;0.105
'3:05:02.576';-0.47;0.105
'3:05:02.580';-0.355;0.085
'3:05:02.584';-0.36;0.05
'3:05:02.588';-0.46;0.05
'3:05:02.592';-0.455;0.095
'3:05:02.596';-0.37;0.08
'3:05:02.600';-0.345;0.105
'3:05:02.604';-0.46;0.085
'3:05:02.608';-0.485;0.085
'3:05:02.612';-0.36;0.075
'3:05:02.616';-0.305;0.045
'3:05:02.620';-0.39;0.045
'3:05:02.624';-0.41;0.055
'3:05:02.628';-0.345;0.09
'3:05:02.632';-0.3;0.055
'3:05:02.636';-0.39;0.065
'3:05:02.640';-0.44;0.085
'3:05:02.644';-0.36;0.115
'3:05:02.648';-0.29;0.1
'3:05:02.652';-0.38;0.07
'3:05:02.656';-0.45;0.065
'3:05:02.660';-0.345;0.105
'3:05:02.664';-0.285;0.075
'3:05:02.668';-0.38;0.025
'3:05:02.672';-0.445;0.04
'3:05:02.676';-0.385;0.065
'3:05:02.680';-0.3;0.06
'3:05:02.684';-0.39;0.06
'3:05:02.688';-0.46;0.05
'3:05:02.692';-0.375;0.09
'3:05:02.696';-0.295;0.05
'3:05:02.700';-0.33;0.035
'3:05:02.704';-0.425;0.06
'3:05:02.708';-0.385;0.075
'3:05:02.712';-0.285;0.085
'3:05:02.716';-0.325;0.07
'3:05:02.720';-0.4;0.075
'3:05:02.724';-0.37;0.1
'3:05:02.728';-0.27;0.085
'3:05:02.732';-0.285;0.085
'3:05:02.736';-0.365;0.085
'3:05:02.740';-0.4;0.075
'3:05:02.744';-0.29;0.065
'3:05:02.748';-0.28;0.09
'3:05:02.752';-0.37;0.075
'3:05:02.756';-0.41;0.085
'3:05:02.760';-0.29;0.09
'3:05:02.764';-0.27;0.1
'3:05:02.768';-0.375;0.075
'3:05:02.772';-0.41;0.05
'3:05:02.776';-0.28;0.08
'3:05:02.780';-0.245;0.07
'3:05:02.784';-0.315;0.06
'3:05:02.788';-0.415;0.045
'3:05:02.792';-0.32;0.085
'3:05:02.796';-0.27;0.06
'3:05:02.800';-0.35;0.04
'3:05:02.804';-0.42;0.055
'3:05:02.808';-0.33;0.095
'3:05:02.812';-0.245;0.095
'3:05:02.816';-0.29;0.02
'3:05:02.820';-0.37;0.055
'3:05:02.824';-0.315;0.105
'3:05:02.828';-0.255;0.07
'3:05:02.832';-0.27;0.08
'3:05:02.836';-0.38;0.06
'3:05:02.840';-0.325;0.12
'3:05:02.844';-0.225;0.1
'3:05:02.848';-0.29;0.11
'3:05:02.852';-0.365;0.08
'3:05:02.856';-0.315;0.065
'3:05:02.860';-0.21;0.07
'3:05:02.864';-0.245;0.055
'3:05:02.868';-0.36;0.03
'3:05:02.872';-0.36;0.065
'3:05:02.876';-0.255;0.09
'3:05:02.880';-0.245;0.05
'3:05:02.884';-0.355;0.07
'3:05:02.888';-0.37;0.095
'3:05:02.892';-0.25;0.095
'3:05:02.896';-0.225;0.07
'3:05:02.900';-0.335;0.06
'3:05:02.904';-0.37;0.06
'3:05:02.908';-0.245;0.07
'3:05:02.912';-0.215;0.085
'3:05:02.916';-0.335;0.075
'3:05:02.920';-0.38;0.09
'3:05:02.924';-0.275;0.145
'3:05:02.928';-0.195;0.13
'3:05:02.932';-0.265;0.075
'3:05:02.936';-0.365;0.065
'3:05:02.940';-0.28;0.08
'3:05:02.944';-0.22;0.11
'3:05:02.948';-0.26;0.07
'3:05:02.952';-0.36;0.095
'3:05:02.956';-0.315;0.16
'3:05:02.960';-0.215;0.08
'3:05:02.964';-0.275;0.065
'3:05:02.968';-0.365;0.05
'3:05:02.972';-0.29;0.07
'3:05:02.976';-0.21;0.07
'3:05:02.980';-0.255;0.03
'3:05:02.984';-0.35;0.035
'3:05:02.988';-0.33;0.075
'3:05:02.992';-0.21;0.07
'3:05:02.996';-0.255;0.08
'3:05:03.000';-0.355;0.08
'3:05:03.004';-0.355;0.1
'3:05:03.008';-0.21;0.055
'3:05:03.012';-0.255;0.1
'3:05:03.016';-0.34;0.05
'3:05:03.020';-0.36;0.06
'3:05:03.024';-0.2;0.045
'3:05:03.028';-0.18;0.05
'3:05:03.032';-0.28;0.04
'3:05:03.036';-0.345;0.075
'3:05:03.040';-0.235;0.075
'3:05:03.044';-0.215;0.075
'3:05:03.048';-0.275;0.05
'3:05:03.052';-0.34;0.08
'3:05:03.056';-0.26;0.1
'3:05:03.060';-0.2;0.09
'3:05:03.064';-0.295;0.1
'3:05:03.068';-0.36;0.12
'3:05:03.072';-0.24;0.025
'3:05:03.076';-0.175;-0.005
'3:05:03.080';-0.215;0.01
'3:05:03.084';-0.225;0.055
'3:05:03.088';-0.105;0.085
'3:05:03.092';0.015;0.085
'3:05:03.096';0.005;0.08
'3:05:03.100';-0.105;0.13
'3:05:03.104';-0.02;0.195
'3:05:03.108';0.09;0.215
'3:05:03.112';0.05;0.23
'3:05:03.116';-0.055;0.275
'3:05:03.120';-0.04;0.325
'3:05:03.124';0.04;0.35
'3:05:03.128';-0.025;0.33
'3:05:03.132';-0.19;0.225
'3:05:03.136';-0.18;0.145
'3:05:03.140';-0.075;0.09
'3:05:03.144';-0.105;0.035
'3:05:03.148';-0.265;-0.04
'3:05:03.152';-0.26;-0.03
'3:05:03.156';-0.195;0
'3:05:03.160';-0.205;-0.035
'3:05:03.164';-0.38;-0.01
'3:05:03.168';-0.41;-0.02
'3:05:03.172';-0.345;-0.015
'3:05:03.176';-0.335;-0.03
'3:05:03.180';-0.435;-0.015
'3:05:03.184';-0.485;-0.03
'3:05:03.188';-0.39;0.005
'3:05:03.192';-0.33;-0.03
'3:05:03.196';-0.445;-0.05
'3:05:03.200';-0.515;-0.035
'3:05:03.204';-0.4;-0.015
'3:05:03.208';-0.345;-0.015
'3:05:03.212';-0.4;-0.045
'3:05:03.216';-0.51;-0.075
'3:05:03.220';-0.48;-0.06
'3:05:03.224';-0.375;-0.06
'3:05:03.228';-0.31;-0.045
'3:05:03.232';-0.19;0.075
'3:05:03.236';0.155;0.22
'3:05:03.240';0.62;0.405
'3:05:03.244';0.94;0.465
'3:05:03.248';1.21;0.525
'3:05:03.252';1.375;0.71
'3:05:03.256';1.26;0.595
'3:05:03.260';0.66;-0.015
'3:05:03.264';0.005;-0.73
'3:05:03.268';-0.49;-1.19
'3:05:03.272';-0.7;-1.52
'3:05:03.276';-0.76;-1.86
'3:05:03.280';-0.785;-2.07
'3:05:03.284';-0.7;-2.18
'3:05:03.288';-0.43;-2.135
'3:05:03.292';-0.315;-1.795
'3:05:03.296';-0.39;-1.32
'3:05:03.300';-0.43;-0.835
'3:05:03.304';-0.36;-0.48
'3:05:03.308';-0.33;-0.26
'3:05:03.312';-0.415;-0.15
'3:05:03.316';-0.485;-0.075
'3:05:03.320';-0.37;-0.005
'3:05:03.324';-0.285;0.04
'3:05:03.328';-0.385;0.05
'3:05:03.332';-0.46;0.055
'3:05:03.336';-0.37;0.07
'3:05:03.340';-0.31;0.085
'3:05:03.344';-0.415;0.11
'3:05:03.348';-0.47;0.135
'3:05:03.352';-0.37;0.145
'3:05:03.356';-0.32;0.145
'3:05:03.360';-0.38;0.12
'3:05:03.364';-0.48;0.165
'3:05:03.368';-0.36;0.155
'3:05:03.372';-0.3;0.165
'3:05:03.376';-0.33;0.135
'3:05:03.380';-0.42;0.16
'3:05:03.384';-0.35;0.165
'3:05:03.388';-0.24;0.185
'3:05:03.392';-0.3;0.195
'3:05:03.396';-0.385;0.185
'3:05:03.400';-0.33;0.185
'3:05:03.404';-0.24;0.23
'3:05:03.408';-0.22;0.21
'3:05:03.412';-0.32;0.225
'3:05:03.416';-0.305;0.25
'3:05:03.420';-0.16;0.265
'3:05:03.424';-0.165;0.315
'3:05:03.428';-0.22;0.34
'3:05:03.432';-0.205;0.39
'3:05:03.436';-0.08;0.42
'3:05:03.440';-0.035;0.435
'3:05:03.444';-0.115;0.44
'3:05:03.448';-0.11;0.485
'3:05:03.452';0.035;0.525
'3:05:03.456';0.06;0.53
'3:05:03.460';0;0.555
'3:05:03.464';-0.015;0.655
'3:05:03.468';0.125;0.645
'3:05:03.472';0.18;0.655
'3:05:03.476';0.115;0.67
'3:05:03.480';0.11;0.71
'3:05:03.484';0.22;0.75
'3:05:03.488';0.3;0.79
'3:05:03.492';0.225;0.785
'3:05:03.496';0.205;0.81
'3:05:03.500';0.28;0.82
'3:05:03.504';0.37;0.8
'3:05:03.508';0.305;0.775
'3:05:03.512';0.23;0.835
'3:05:03.516';0.3;0.845
'3:05:03.520';0.395;0.82
'3:05:03.524';0.315;0.84
'3:05:03.528';0.215;0.815
'3:05:03.532';0.26;0.81
'3:05:03.536';0.315;0.785
'3:05:03.540';0.195;0.765
'3:05:03.544';0.08;0.75
'3:05:03.548';0.09;0.75
'3:05:03.552';0.145;0.69
'3:05:03.556';0.07;0.63
'3:05:03.560';-0.065;0.62
'3:05:03.564';-0.08;0.575
'3:05:03.568';0.025;0.575
'3:05:03.572';-0.01;0.475
'3:05:03.576';-0.16;0.47
'3:05:03.580';-0.2;0.415
'3:05:03.584';-0.095;0.405
'3:05:03.588';-0.085;0.345
'3:05:03.592';-0.23;0.3
'3:05:03.596';-0.255;0.255
'3:05:03.600';-0.155;0.235
'3:05:03.604';-0.135;0.235
'3:05:03.608';-0.26;0.215
'3:05:03.612';-0.3;0.24
'3:05:03.616';-0.18;0.215
'3:05:03.620';-0.14;0.18
'3:05:03.624';-0.265;0.15
'3:05:03.628';-0.255;0.155
'3:05:03.632';-0.16;0.17
'3:05:03.636';-0.135;0.16
'3:05:03.640';-0.235;0.155
'3:05:03.644';-0.275;0.175
'3:05:03.648';-0.19;0.185
'3:05:03.652';-0.12;0.185
'3:05:03.656';-0.24;0.195
'3:05:03.660';-0.295;0.19
'3:05:03.664';-0.23;0.18
'3:05:03.668';-0.115;0.14
'3:05:03.672';-0.22;0.115
'3:05:03.676';-0.31;0.165
'3:05:03.680';-0.26;0.175
'3:05:03.684';-0.15;0.175
'3:05:03.688';-0.19;0.15
'3:05:03.692';-0.285;0.16
'3:05:03.696';-0.245;0.165
'3:05:03.700';-0.15;0.155
'3:05:03.704';-0.205;0.155
'3:05:03.708';-0.32;0.175
'3:05:03.712';-0.295;0.195
'3:05:03.716';-0.18;0.175
'3:05:03.720';-0.22;0.11
'3:05:03.724';-0.29;0.05
'3:05:03.728';-0.28;0.1
'3:05:03.732';-0.175;0.09
'3:05:03.736';-0.21;0.08
'3:05:03.740';-0.315;0.125
'3:05:03.744';-0.295;0.13
'3:05:03.748';-0.2;0.135
'3:05:03.752';-0.195;0.055
'3:05:03.756';-0.315;0.095
'3:05:03.760';-0.3;0.105
'3:05:03.764';-0.195;0.11
'3:05:03.768';-0.22;0.085
'3:05:03.772';-0.33;0.09
'3:05:03.776';-0.33;0.07
'3:05:03.780';-0.215;0.065
'3:05:03.784';-0.225;0.02
'3:05:03.788';-0.305;0.025
'3:05:03.792';-0.345;0.055
'3:05:03.796';-0.23;0.07
'3:05:03.800';-0.205;0.055
'3:05:03.804';-0.3;0.04
'3:05:03.808';-0.335;0.055
'3:05:03.812';-0.21;0.05
'3:05:03.816';-0.125;0.04
'3:05:03.820';-0.17;0.045
'3:05:03.824';-0.17;0.065
'3:05:03.828';-0.045;0.08
'3:05:03.832';0.035;0.085
'3:05:03.836';-0.025;0.125
'3:05:03.840';-0.09;0.155
'3:05:03.844';0.02;0.225
'3:05:03.848';0.095;0.23
'3:05:03.852';0.005;0.275
'3:05:03.856';-0.105;0.32
'3:05:03.860';-0.095;0.325
'3:05:03.864';-0.04;0.25
'3:05:03.868';-0.15;0.17
'3:05:03.872';-0.26;0.105
'3:05:03.876';-0.21;0.045
'3:05:03.880';-0.105;-0.03
'3:05:03.884';-0.21;-0.065
'3:05:03.888';-0.325;-0.045
'3:05:03.892';-0.3;-0.03
'3:05:03.896';-0.24;-0.03
'3:05:03.900';-0.355;-0.06
'3:05:03.904';-0.485;-0.075
'3:05:03.908';-0.455;-0.055
'3:05:03.912';-0.35;-0.045
'3:05:03.916';-0.395;-0.05
'3:05:03.920';-0.49;-0.07
'3:05:03.924';-0.43;-0.045
'3:05:03.928';-0.345;-0.075
'3:05:03.932';-0.355;-0.11
'3:05:03.936';-0.48;-0.08
'3:05:03.940';-0.465;-0.05
'3:05:03.944';-0.325;-0.035
'3:05:03.948';-0.345;-0.07
'3:05:03.952';-0.51;-0.08
'3:05:03.956';-0.55;-0.085
'3:05:03.960';-0.4;-0.06
'3:05:03.964';-0.28;-0.07
'3:05:03.968';-0.175;0
'3:05:03.972';0.085;0.195
'3:05:03.976';0.565;0.355
'3:05:03.980';1.01;0.355
'3:05:03.984';1.24;0.475
'3:05:03.988';1.345;0.63
'3:05:03.992';1.115;0.44
'3:05:03.996';0.53;-0.155
'3:05:04.000';-0.15;-0.895
'3:05:04.004';-0.635;-1.345
'3:05:04.008';-0.73;-1.705
'3:05:04.012';-0.71;-2.095
'3:05:04.016';-0.765;-2.345
'3:05:04.020';-0.655;-2.375
'3:05:04.024';-0.4;-2.185
'3:05:04.028';-0.31;-1.72
'3:05:04.032';-0.41;-1.2
'3:05:04.036';-0.455;-0.76
'3:05:04.040';-0.315;-0.42
'3:05:04.044';-0.265;-0.16
'3:05:04.048';-0.36;-0.05
'3:05:04.052';-0.46;-0.01
'3:05:04.056';-0.34;0.02
'3:05:04.060';-0.285;0.045
'3:05:04.064';-0.345;0.03
'3:05:04.068';-0.46;0.04
'3:05:04.072';-0.405;0.045
'3:05:04.076';-0.28;0.08
'3:05:04.080';-0.385;0.05
'3:05:04.084';-0.45;0.08
'3:05:04.088';-0.385;0.07
'3:05:04.092';-0.28;0.07
'3:05:04.096';-0.345;0.085
'3:05:04.100';-0.46;0.125
'3:05:04.104';-0.39;0.145
'3:05:04.108';-0.265;0.145
'3:05:04.112';-0.325;0.115
'3:05:04.116';-0.42;0.15
'3:05:04.120';-0.385;0.15
'3:05:04.124';-0.21;0.17
'3:05:04.128';-0.24;0.18
'3:05:04.132';-0.32;0.185
'3:05:04.136';-0.305;0.22
'3:05:04.140';-0.185;0.195
'3:05:04.144';-0.21;0.195
'3:05:04.148';-0.29;0.24
'3:05:04.152';-0.26;0.265
'3:05:04.156';-0.12;0.29
'3:05:04.160';-0.1;0.275
'3:05:04.164';-0.22;0.285
'3:05:04.168';-0.17;0.335
'3:05:04.172';-0.055;0.385
'3:05:04.176';-0.02;0.42
'3:05:04.180';-0.09;0.45
'3:05:04.184';-0.095;0.425
'3:05:04.188';0.045;0.46
'3:05:04.192';0.11;0.47
'3:05:04.196';0.07;0.56
'3:05:04.200';0.055;0.61
'3:05:04.204';0.185;0.66
'3:05:04.208';0.23;0.625
'3:05:04.212';0.13;0.645
'3:05:04.216';0.13;0.65
'3:05:04.220';0.28;0.735
'3:05:04.224';0.325;0.695
'3:05:04.228';0.275;0.715
'3:05:04.232';0.175;0.715
'3:05:04.236';0.265;0.745
'3:05:04.240';0.27;0.71
'3:05:04.244';0.19;0.65
'3:05:04.248';0.04;0.68
'3:05:04.252';0.06;0.72
'3:05:04.256';0.095;0.675
'3:05:04.260';-0.02;0.625
'3:05:04.264';-0.13;0.595
'3:05:04.268';-0.125;0.545
'3:05:04.272';-0.055;0.51
'3:05:04.276';-0.185;0.45
'3:05:04.280';-0.245;0.41
'3:05:04.284';-0.22;0.39
'3:05:04.288';-0.135;0.33
'3:05:04.292';-0.285;0.25
'3:05:04.296';-0.39;0.255
'3:05:04.300';-0.345;0.23
'3:05:04.304';-0.22;0.175
'3:05:04.308';-0.305;0.075
'3:05:04.312';-0.425;0.02
'3:05:04.316';-0.395;0.03
'3:05:04.320';-0.27;0.055
'3:05:04.324';-0.34;0.02
'3:05:04.328';-0.435;0.035
'3:05:04.332';-0.375;0.05
'3:05:04.336';-0.26;0.035
'3:05:04.340';-0.235;-0.02
'3:05:04.344';-0.355;0.005
'3:05:04.348';-0.345;0.005
'3:05:04.352';-0.265;0.01
'3:05:04.356';-0.28;-0.015
'3:05:04.360';-0.415;-0.005
'3:05:04.364';-0.42;0.02
'3:05:04.368';-0.325;0.035
'3:05:04.372';-0.32;-0.01
'3:05:04.376';-0.42;0.01
'3:05:04.380';-0.41;0.055
'3:05:04.384';-0.29;0.05
'3:05:04.388';-0.275;0.025
'3:05:04.392';-0.4;0.005
'3:05:04.396';-0.4;-0.02
'3:05:04.400';-0.285;0.015
'3:05:04.404';-0.325;0
'3:05:04.408';-0.435;0.03
'3:05:04.412';-0.395;0.025
'3:05:04.416';-0.32;0.01
'3:05:04.420';-0.32;0
'3:05:04.424';-0.405;-0.005
'3:05:04.428';-0.42;0.015
'3:05:04.432';-0.275;0.035
'3:05:04.436';-0.315;0.02
'3:05:04.440';-0.46;0.01
'3:05:04.444';-0.46;0
'3:05:04.448';-0.315;-0.01
'3:05:04.452';-0.27;-0.02
'3:05:04.456';-0.405;-0.06
'3:05:04.460';-0.405;-0.02
'3:05:04.464';-0.3;0
'3:05:04.468';-0.275;-0.03
'3:05:04.472';-0.39;-0.01
'3:05:04.476';-0.42;0.015
'3:05:04.480';-0.34;-0.05
'3:05:04.484';-0.36;-0.05
'3:05:04.488';-0.485;-0.06
'3:05:04.492';-0.48;-0.04
'3:05:04.496';-0.35;-0.04
'3:05:04.500';-0.33;-0.07
'3:05:04.504';-0.43;-0.09
'3:05:04.508';-0.485;-0.07
'3:05:04.512';-0.345;-0.035
'3:05:04.516';-0.28;-0.04
'3:05:04.520';-0.385;-0.005
'3:05:04.524';-0.41;-0.025
'3:05:04.528';-0.29;-0.02
'3:05:04.532';-0.25;-0.08
'3:05:04.536';-0.365;-0.065
'3:05:04.540';-0.425;-0.05
'3:05:04.544';-0.305;-0.04
'3:05:04.548';-0.25;-0.05
'3:05:04.552';-0.325;-0.065
'3:05:04.556';-0.345;-0.02
'3:05:04.560';-0.23;-0.03
'3:05:04.564';-0.135;-0.01
'3:05:04.568';-0.175;-0.045
'3:05:04.572';-0.23;0
'3:05:04.576';-0.13;0.035
'3:05:04.580';-0.055;0.1
'3:05:04.584';-0.1;0.12
'3:05:04.588';-0.175;0.095
'3:05:04.592';-0.07;0.13
'3:05:04.596';-0.025;0.16
'3:05:04.600';-0.16;0.13
'3:05:04.604';-0.25;0.095
'3:05:04.608';-0.21;0.085
'3:05:04.612';-0.15;0.045
'3:05:04.616';-0.235;-0.025
'3:05:04.620';-0.33;-0.085
'3:05:04.624';-0.305;-0.09
'3:05:04.628';-0.22;-0.07
'3:05:04.632';-0.325;-0.065
'3:05:04.636';-0.49;-0.085
'3:05:04.640';-0.45;-0.08
'3:05:04.644';-0.405;-0.085
'3:05:04.648';-0.465;-0.065
'3:05:04.652';-0.585;-0.09
'3:05:04.656';-0.515;-0.055
'3:05:04.660';-0.435;-0.09
'3:05:04.664';-0.45;-0.16
'3:05:04.668';-0.575;-0.16
'3:05:04.672';-0.57;-0.14
'3:05:04.676';-0.445;-0.15
'3:05:04.680';-0.475;-0.155
'3:05:04.684';-0.58;-0.135
'3:05:04.688';-0.525;-0.125
'3:05:04.692';-0.405;-0.1
'3:05:04.696';-0.485;-0.105
'3:05:04.700';-0.605;-0.11
'3:05:04.704';-0.46;-0.06
'3:05:04.708';-0.08;0.065
'3:05:04.712';0.24;0.225
'3:05:04.716';0.535;0.31
'3:05:04.720';0.965;0.385
'3:05:04.724';1.4;0.485
'3:05:04.728';1.42;0.725
'3:05:04.732';0.9;0.66
'3:05:04.736';0.24;0.135
'3:05:04.740';-0.155;-0.585
'3:05:04.744';-0.555;-1.05
'3:05:04.748';-0.885;-1.395
'3:05:04.752';-0.94;-1.66
'3:05:04.756';-0.775;-1.865
'3:05:04.760';-0.625;-2.05
'3:05:04.764';-0.575;-2
'3:05:04.768';-0.48;-1.64
'3:05:04.772';-0.405;-1.24
'3:05:04.776';-0.43;-0.915
'3:05:04.780';-0.55;-0.565
'3:05:04.784';-0.57;-0.305
'3:05:04.788';-0.45;-0.11
'3:05:04.792';-0.39;-0.045
'3:05:04.796';-0.435;-0.035
'3:05:04.800';-0.515;-0.035
'3:05:04.804';-0.41;-0.07
'3:05:04.808';-0.35;-0.045
'3:05:04.812';-0.425;0
'3:05:04.816';-0.47;0
'3:05:04.820';-0.35;0.03
'3:05:04.824';-0.28;0.015
'3:05:04.828';-0.38;0.025
'3:05:04.832';-0.49;0.055
'3:05:04.836';-0.42;0.11
'3:05:04.840';-0.37;0.065
'3:05:04.844';-0.39;0.055
'3:05:04.848';-0.455;0.06
'3:05:04.852';-0.32;0.095
'3:05:04.856';-0.3;0.105
'3:05:04.860';-0.355;0.09
'3:05:04.864';-0.45;0.12
'3:05:04.868';-0.37;0.14
'3:05:04.872';-0.28;0.11
'3:05:04.876';-0.295;0.125
'3:05:04.880';-0.4;0.095
'3:05:04.884';-0.32;0.15
'3:05:04.888';-0.205;0.135
'3:05:04.892';-0.26;0.145
'3:05:04.896';-0.33;0.155
'3:05:04.900';-0.26;0.195
'3:05:04.904';-0.08;0.24
'3:05:04.908';-0.095;0.265
'3:05:04.912';-0.14;0.28
'3:05:04.916';-0.07;0.355
'3:05:04.920';0.045;0.375
'3:05:04.924';0.04;0.445
'3:05:04.928';-0.035;0.44
'3:05:04.932';-0.025;0.49
'3:05:04.936';0.095;0.485
'3:05:04.940';0.1;0.475
'3:05:04.944';0.065;0.56
'3:05:04.948';0.115;0.61
'3:05:04.952';0.23;0.605
'3:05:04.956';0.235;0.625
'3:05:04.960';0.125;0.615
'3:05:04.964';0.12;0.645
'3:05:04.968';0.235;0.665
'3:05:04.972';0.25;0.65
'3:05:04.976';0.15;0.645
'3:05:04.980';0.11;0.645
'3:05:04.984';0.2;0.64
'3:05:04.988';0.18;0.61
'3:05:04.992';-0.01;0.605
'3:05:04.996';-0.065;0.595
'3:05:05.000';0;0.565
'3:05:05.004';-0.02;0.52
'3:05:05.008';-0.16;0.485
'3:05:05.012';-0.25;0.45
'3:05:05.016';-0.155;0.4
'3:05:05.020';-0.16;0.355
'3:05:05.024';-0.26;0.275
'3:05:05.028';-0.335;0.265
'3:05:05.032';-0.26;0.22
'3:05:05.036';-0.225;0.16
'3:05:05.040';-0.34;0.105
'3:05:05.044';-0.43;0.085
'3:05:05.048';-0.36;0.1
'3:05:05.052';-0.305;0.055
'3:05:05.056';-0.39;0.025
'3:05:05.060';-0.475;0.025
'3:05:05.064';-0.365;-0.005
'3:05:05.068';-0.315;-0.035
'3:05:05.072';-0.425;-0.07
'3:05:05.076';-0.495;0.01
'3:05:05.080';-0.405;-0.02
'3:05:05.084';-0.335;-0.085
'3:05:05.088';-0.385;-0.095
'3:05:05.092';-0.48;-0.065
'3:05:05.096';-0.36;-0.05
'3:05:05.100';-0.28;-0.065
'3:05:05.104';-0.315;-0.055
'3:05:05.108';-0.385;-0.055
'3:05:05.112';-0.345;-0.025
'3:05:05.116';-0.24;-0.035
'3:05:05.120';-0.32;-0.045
'3:05:05.124';-0.425;-0.025
'3:05:05.128';-0.375;0
'3:05:05.132';-0.245;-0.015
'3:05:05.136';-0.295;0.005
'3:05:05.140';-0.425;-0.005
'3:05:05.144';-0.39;0.01
'3:05:05.148';-0.28;-0.01
'3:05:05.152';-0.315;-0.03
'3:05:05.156';-0.43;-0.03
'3:05:05.160';-0.415;0
'3:05:05.164';-0.305;-0.05
'3:05:05.168';-0.32;-0.04
'3:05:05.172';-0.435;-0.035
'3:05:05.176';-0.41;-0.03
'3:05:05.180';-0.29;-0.02
'3:05:05.184';-0.295;-0.03
'3:05:05.188';-0.44;0.01
'3:05:05.192';-0.45;0.025
'3:05:05.196';-0.325;-0.045
'3:05:05.200';-0.29;-0.12
'3:05:05.204';-0.43;-0.1
'3:05:05.208';-0.48;-0.07
'3:05:05.212';-0.345;-0.065
'3:05:05.216';-0.3;-0.085
'3:05:05.220';-0.445;-0.085
'3:05:05.224';-0.47;-0.065
'3:05:05.228';-0.32;-0.045
'3:05:05.232';-0.305;-0.055
'3:05:05.236';-0.41;-0.08
'3:05:05.240';-0.505;-0.055
'3:05:05.244';-0.42;-0.01
'3:05:05.248';-0.365;-0.015
'3:05:05.252';-0.45;-0.08
'3:05:05.256';-0.51;-0.1
'3:05:05.260';-0.42;-0.145
'3:05:05.264';-0.35;-0.16
'3:05:05.268';-0.415;-0.145
'3:05:05.272';-0.495;-0.14
'3:05:05.276';-0.415;-0.09
'3:05:05.280';-0.315;-0.08
'3:05:05.284';-0.375;-0.12
'3:05:05.288';-0.385;-0.11
'3:05:05.292';-0.275;-0.095
'3:05:05.296';-0.15;-0.08
'3:05:05.300';-0.16;-0.055
'3:05:05.304';-0.23;-0.015
'3:05:05.308';-0.14;0.065
'3:05:05.312';-0.025;0.04
'3:05:05.316';-0.045;0.035
'3:05:05.320';-0.14;0.035
'3:05:05.324';-0.11;0.135
'3:05:05.328';-0.025;0.11
'3:05:05.332';-0.095;0.075
'3:05:05.336';-0.225;0.07
'3:05:05.340';-0.26;0.07
'3:05:05.344';-0.195;0.015
'3:05:05.348';-0.235;-0.025
'3:05:05.352';-0.375;-0.11
'3:05:05.356';-0.35;-0.135
'3:05:05.360';-0.3;-0.155
'3:05:05.364';-0.36;-0.18
'3:05:05.368';-0.52;-0.17
'3:05:05.372';-0.56;-0.15
'3:05:05.376';-0.46;-0.15
'3:05:05.380';-0.475;-0.155
'3:05:05.384';-0.635;-0.115
'3:05:05.388';-0.68;-0.13
'3:05:05.392';-0.51;-0.15
'3:05:05.396';-0.485;-0.205
'3:05:05.400';-0.575;-0.255
'3:05:05.404';-0.615;-0.22
'3:05:05.408';-0.515;-0.2
'3:05:05.412';-0.49;-0.185
'3:05:05.416';-0.57;-0.17
'3:05:05.420';-0.61;-0.22
'3:05:05.424';-0.52;-0.185
'3:05:05.428';-0.515;-0.19
'3:05:05.432';-0.63;-0.175
'3:05:05.436';-0.62;-0.155
'3:05:05.440';-0.32;-0.1
'3:05:05.444';0.005;0.005
'3:05:05.448';0.275;0.145
'3:05:05.452';0.63;0.265
'3:05:05.456';1.105;0.31
'3:05:05.460';1.44;0.44
'3:05:05.464';1.22;0.46
'3:05:05.468';0.595;0.025
'3:05:05.472';0;-0.71
'3:05:05.476';-0.435;-1.34
'3:05:05.480';-0.88;-1.795
'3:05:05.484';-1.055;-2.17
'3:05:05.488';-0.92;-2.365
'3:05:05.492';-0.715;-2.38
'3:05:05.496';-0.62;-2.385
'3:05:05.500';-0.61;-2.035
'3:05:05.504';-0.515;-1.48
'3:05:05.508';-0.42;-1.03
'3:05:05.512';-0.48;-0.695
'3:05:05.516';-0.57;-0.425
'3:05:05.520';-0.51;-0.22
'3:05:05.524';-0.43;-0.175
'3:05:05.528';-0.47;-0.115
'3:05:05.532';-0.575;-0.1
'3:05:05.536';-0.535;-0.04
'3:05:05.540';-0.41;-0.065
'3:05:05.544';-0.42;-0.015
'3:05:05.548';-0.545;-0.03
'3:05:05.552';-0.55;0
'3:05:05.556';-0.455;0.045
'3:05:05.560';-0.44;0.02
'3:05:05.564';-0.57;-0.025
'3:05:05.568';-0.565;0.015
'3:05:05.572';-0.45;0.025
'3:05:05.576';-0.425;-0.045
'3:05:05.580';-0.545;0.005
'3:05:05.584';-0.55;0.015
'3:05:05.588';-0.415;0.05
'3:05:05.592';-0.385;0.06
'3:05:05.596';-0.465;0.05
'3:05:05.600';-0.485;0.095
'3:05:05.604';-0.355;0.15
'3:05:05.608';-0.32;0.12
'3:05:05.612';-0.395;0.12
'3:05:05.616';-0.425;0.165
'3:05:05.620';-0.335;0.2
'3:05:05.624';-0.24;0.18
'3:05:05.628';-0.325;0.18
'3:05:05.632';-0.395;0.205
'3:05:05.636';-0.305;0.265
'3:05:05.640';-0.175;0.29
'3:05:05.644';-0.205;0.315
'3:05:05.648';-0.28;0.335
'3:05:05.652';-0.17;0.435
'3:05:05.656';-0.06;0.445
'3:05:05.660';-0.09;0.445
'3:05:05.664';-0.13;0.465
'3:05:05.668';-0.06;0.555
'3:05:05.672';0.055;0.535
'3:05:05.676';0.06;0.58
'3:05:05.680';-0.005;0.63
'3:05:05.684';0.06;0.66
'3:05:05.688';0.18;0.68
'3:05:05.692';0.18;0.69
'3:05:05.696';0.09;0.69
'3:05:05.700';0.11;0.735
'3:05:05.704';0.23;0.76
'3:05:05.708';0.21;0.78
'3:05:05.712';0.07;0.74
'3:05:05.716';0.025;0.78
'3:05:05.720';0.095;0.73
'3:05:05.724';0.12;0.735
'3:05:05.728';-0.03;0.71
'3:05:05.732';-0.105;0.685
'3:05:05.736';-0.055;0.63
'3:05:05.740';-0.05;0.58
'3:05:05.744';-0.2;0.495
'3:05:05.748';-0.3;0.475
'3:05:05.752';-0.27;0.43
'3:05:05.756';-0.205;0.42
'3:05:05.760';-0.33;0.325
'3:05:05.764';-0.395;0.26
'3:05:05.768';-0.34;0.275
'3:05:05.772';-0.285;0.195
'3:05:05.776';-0.385;0.18
'3:05:05.780';-0.475;0.135
'3:05:05.784';-0.41;0.08
'3:05:05.788';-0.345;0.02
'3:05:05.792';-0.385;0.01
'3:05:05.796';-0.495;-0.02
'3:05:05.800';-0.425;0.005
'3:05:05.804';-0.315;-0.005
'3:05:05.808';-0.37;-0.015
'3:05:05.812';-0.48;-0.015
'3:05:05.816';-0.455;0.025
'3:05:05.820';-0.34;-0.01
'3:05:05.824';-0.37;0
'3:05:05.828';-0.475;0
'3:05:05.832';-0.425;0
'3:05:05.836';-0.31;-0.025
'3:05:05.840';-0.345;-0.035
'3:05:05.844';-0.495;-0.055
'3:05:05.848';-0.45;-0.01
'3:05:05.852';-0.335;0.01
'3:05:05.856';-0.32;-0.02
'3:05:05.860';-0.42;-0.07
'3:05:05.864';-0.425;-0.03
'3:05:05.868';-0.36;0.005
'3:05:05.872';-0.32;-0.045
'3:05:05.876';-0.41;0.01
'3:05:05.880';-0.465;0.015
'3:05:05.884';-0.375;-0.02
'3:05:05.888';-0.315;-0.04
'3:05:05.892';-0.435;-0.04
'3:05:05.896';-0.48;-0.025
'3:05:05.900';-0.365;-0.01
'3:05:05.904';-0.31;0
'3:05:05.908';-0.41;0
'3:05:05.912';-0.465;0.035
'3:05:05.916';-0.36;0.02
'3:05:05.920';-0.335;0.025
'3:05:05.924';-0.42;0
'3:05:05.928';-0.495;-0.01
'3:05:05.932';-0.385;-0.025
'3:05:05.936';-0.34;-0.03
'3:05:05.940';-0.415;0
'3:05:05.944';-0.475;0.005
'3:05:05.948';-0.405;-0.005
'3:05:05.952';-0.345;-0.02
'3:05:05.956';-0.425;-0.025
'3:05:05.960';-0.49;0.025
'3:05:05.964';-0.425;0.015
'3:05:05.968';-0.36;-0.005
'3:05:05.972';-0.43;-0.07
'3:05:05.976';-0.525;-0.05
'3:05:05.980';-0.445;-0.04
'3:05:05.984';-0.335;-0.075
'3:05:05.988';-0.415;-0.06
'3:05:05.992';-0.525;-0.06
'3:05:05.996';-0.425;-0.02
'3:05:06.000';-0.32;-0.025
'3:05:06.004';-0.37;-0.055
'3:05:06.008';-0.51;-0.05
'3:05:06.012';-0.46;-0.03
'3:05:06.016';-0.335;-0.025
'3:05:06.020';-0.33;-0.05
'3:05:06.024';-0.4;-0.085
'3:05:06.028';-0.34;-0.045
'3:05:06.032';-0.185;-0.025
'3:05:06.036';-0.165;-0.04
'3:05:06.040';-0.25;-0.055
'3:05:06.044';-0.225;-0.005
'3:05:06.048';-0.1;0.05
'3:05:06.052';-0.08;0.095
'3:05:06.056';-0.2;0.12
'3:05:06.060';-0.195;0.155
'3:05:06.064';-0.105;0.18
'3:05:06.068';-0.115;0.155
'3:05:06.072';-0.26;0.12
'3:05:06.076';-0.31;0.12
'3:05:06.080';-0.275;0.055
'3:05:06.084';-0.27;0.01
'3:05:06.088';-0.36;-0.04
'3:05:06.092';-0.41;-0.1
'3:05:06.096';-0.305;-0.12
'3:05:06.100';-0.295;-0.14
'3:05:06.104';-0.465;-0.13
'3:05:06.108';-0.585;-0.085
'3:05:06.112';-0.475;-0.145
'3:05:06.116';-0.47;-0.125
'3:05:06.120';-0.55;-0.13
'3:05:06.124';-0.63;-0.11
'3:05:06.128';-0.56;-0.115
'3:05:06.132';-0.49;-0.15
'3:05:06.136';-0.58;-0.14
'3:05:06.140';-0.68;-0.16
'3:05:06.144';-0.605;-0.195
'3:05:06.148';-0.5;-0.155
'3:05:06.152';-0.53;-0.16
'3:05:06.156';-0.665;-0.18
'3:05:06.160';-0.58;-0.145
'3:05:06.164';-0.52;-0.115
'3:05:06.168';-0.605;-0.135
'3:05:06.172';-0.75;-0.18
'3:05:06.176';-0.595;-0.145
'3:05:06.180';-0.285;-0.125
'3:05:06.184';0.02;0.055
'3:05:06.188';0.27;0.215
'3:05:06.192';0.725;0.285
'3:05:06.196';1.18;0.38
'3:05:06.200';1.385;0.54
'3:05:06.204';1.05;0.375
'3:05:06.208';0.455;-0.2
'3:05:06.212';-0.07;-0.955
'3:05:06.216';-0.55;-1.5
'3:05:06.220';-1;-1.955
'3:05:06.224';-1.045;-2.345
'3:05:06.228';-0.865;-2.55
'3:05:06.232';-0.715;-2.595
'3:05:06.236';-0.69;-2.42
'3:05:06.240';-0.59;-1.845
'3:05:06.244';-0.485;-1.285
'3:05:06.248';-0.455;-0.86
'3:05:06.252';-0.585;-0.55
'3:05:06.256';-0.645;-0.3
'3:05:06.260';-0.53;-0.21
'3:05:06.264';-0.47;-0.135
'3:05:06.268';-0.555;-0.11
'3:05:06.272';-0.64;-0.065
'3:05:06.276';-0.54;-0.05
'3:05:06.280';-0.475;-0.045
'3:05:06.284';-0.545;-0.04
'3:05:06.288';-0.63;0
'3:05:06.292';-0.565;0.015
'3:05:06.296';-0.455;0
'3:05:06.300';-0.54;0.01
'3:05:06.304';-0.6;0.025
'3:05:06.308';-0.565;0.03
'3:05:06.312';-0.45;0.06
'3:05:06.316';-0.5;0.015
'3:05:06.320';-0.585;0.045
'3:05:06.324';-0.52;0.07
'3:05:06.328';-0.415;0.105
'3:05:06.332';-0.445;0.085
'3:05:06.336';-0.54;0.065
'3:05:06.340';-0.49;0.125
'3:05:06.344';-0.38;0.145
'3:05:06.348';-0.38;0.135
'3:05:06.352';-0.485;0.155
'3:05:06.356';-0.46;0.24
'3:05:06.360';-0.345;0.205
'3:05:06.364';-0.325;0.215
'3:05:06.368';-0.425;0.225
'3:05:06.372';-0.385;0.295
'3:05:06.376';-0.245;0.305
'3:05:06.380';-0.22;0.295
'3:05:06.384';-0.305;0.315
'3:05:06.388';-0.285;0.385
'3:05:06.392';-0.105;0.41
'3:05:06.396';-0.065;0.445
'3:05:06.400';-0.12;0.475
'3:05:06.404';-0.11;0.525
'3:05:06.408';0.005;0.57
'3:05:06.412';0.095;0.63
'3:05:06.416';-0.02;0.65
'3:05:06.420';-0.005;0.725
'3:05:06.424';0.13;0.75
'3:05:06.428';0.21;0.695
'3:05:06.432';0.12;0.7
'3:05:06.436';0.07;0.775
'3:05:06.440';0.17;0.75
'3:05:06.444';0.22;0.78
'3:05:06.448';0.13;0.755
'3:05:06.452';0.015;0.805
'3:05:06.456';0.07;0.785
'3:05:06.460';0.11;0.775
'3:05:06.464';-0.005;0.76
'3:05:06.468';-0.15;0.76
'3:05:06.472';-0.125;0.71
'3:05:06.476';-0.09;0.645
'3:05:06.480';-0.21;0.595
'3:05:06.484';-0.305;0.565
'3:05:06.488';-0.295;0.56
'3:05:06.492';-0.26;0.445
'3:05:06.496';-0.32;0.41
'3:05:06.500';-0.445;0.375
'3:05:06.504';-0.435;0.315
'3:05:06.508';-0.34;0.265
'3:05:06.512';-0.365;0.225
'3:05:06.516';-0.5;0.165
'3:05:06.520';-0.48;0.15
'3:05:06.524';-0.385;0.15
'3:05:06.528';-0.42;0.13
'3:05:06.532';-0.535;0.055
'3:05:06.536';-0.53;0.01
'3:05:06.540';-0.425;0.005
'3:05:06.544';-0.38;-0.055
'3:05:06.548';-0.505;-0.035
'3:05:06.552';-0.555;0
'3:05:06.556';-0.445;-0.025
'3:05:06.560';-0.38;-0.035
'3:05:06.564';-0.5;-0.03
'3:05:06.568';-0.53;-0.03
'3:05:06.572';-0.455;-0.025
'3:05:06.576';-0.365;-0.03
'3:05:06.580';-0.49;-0.09
'3:05:06.584';-0.53;-0.035
'3:05:06.588';-0.46;-0.01
'3:05:06.592';-0.41;0
'3:05:06.596';-0.48;0
'3:05:06.600';-0.54;0.015
'3:05:06.604';-0.46;0.015
'3:05:06.608';-0.37;0
'3:05:06.612';-0.42;0
'3:05:06.616';-0.525;0
'3:05:06.620';-0.455;0.03
'3:05:06.624';-0.355;0.005
'3:05:06.628';-0.425;-0.045
'3:05:06.632';-0.53;0
'3:05:06.636';-0.475;-0.005
'3:05:06.640';-0.39;0
'3:05:06.644';-0.39;0
'3:05:06.648';-0.53;0.05
'3:05:06.652';-0.525;0.02
'3:05:06.656';-0.43;0.04
'3:05:06.660';-0.445;-0.045
'3:05:06.664';-0.545;-0.06
'3:05:06.668';-0.53;-0.04
'3:05:06.672';-0.43;-0.025
'3:05:06.676';-0.42;-0.055
'3:05:06.680';-0.5;-0.065
'3:05:06.684';-0.54;-0.055
'3:05:06.688';-0.46;-0.03
'3:05:06.692';-0.425;-0.075
'3:05:06.696';-0.515;-0.04
'3:05:06.700';-0.55;-0.03
'3:05:06.704';-0.445;0
'3:05:06.708';-0.345;-0.05
'3:05:06.712';-0.49;-0.06
'3:05:06.716';-0.54;-0.025
'3:05:06.720';-0.46;-0.015
'3:05:06.724';-0.385;-0.01
'3:05:06.728';-0.46;-0.04
'3:05:06.732';-0.55;0.015
'3:05:06.736';-0.44;0
'3:05:06.740';-0.375;-0.02
'3:05:06.744';-0.47;-0.05
'3:05:06.748';-0.515;-0.055
'3:05:06.752';-0.44;-0.035
'3:05:06.756';-0.335;-0.04
'3:05:06.760';-0.41;-0.045
'3:05:06.764';-0.415;-0.04
'3:05:06.768';-0.31;-0.02
'3:05:06.772';-0.15;-0.025
'3:05:06.776';-0.25;-0.015
'3:05:06.780';-0.315;0.03
'3:05:06.784';-0.215;0.125
'3:05:06.788';-0.1;0.125
'3:05:06.792';-0.145;0.14
'3:05:06.796';-0.235;0.16
'3:05:06.800';-0.205;0.22
'3:05:06.804';-0.14;0.21
'3:05:06.808';-0.195;0.14
'3:05:06.812';-0.36;0.1
'3:05:06.816';-0.355;0.095
'3:05:06.820';-0.25;0.04
'3:05:06.824';-0.295;-0.04
'3:05:06.828';-0.415;-0.125
'3:05:06.832';-0.415;-0.145
'3:05:06.836';-0.335;-0.095
'3:05:06.840';-0.415;-0.115
'3:05:06.844';-0.56;-0.105
'3:05:06.848';-0.59;-0.12
'3:05:06.852';-0.515;-0.095
'3:05:06.856';-0.54;-0.11
'3:05:06.860';-0.66;-0.09
'3:05:06.864';-0.65;-0.11
'3:05:06.868';-0.53;-0.155
'3:05:06.872';-0.555;-0.175
'3:05:06.876';-0.675;-0.175
'3:05:06.880';-0.65;-0.175
'3:05:06.884';-0.535;-0.145
'3:05:06.888';-0.545;-0.185
'3:05:06.892';-0.625;-0.185
'3:05:06.896';-0.655;-0.175
'3:05:06.900';-0.565;-0.11
'3:05:06.904';-0.56;-0.15
'3:05:06.908';-0.625;-0.14
'3:05:06.912';-0.495;-0.065
'3:05:06.916';-0.12;0.055
'3:05:06.920';0.26;0.195
'3:05:06.924';0.55;0.27
'3:05:06.928';0.9;0.31
'3:05:06.932';1.285;0.495
'3:05:06.936';1.285;0.53
'3:05:06.940';0.69;0.07
'3:05:06.944';0.02;-0.655
'3:05:06.948';-0.46;-1.28
'3:05:06.952';-0.76;-1.755
'3:05:06.956';-1.005;-2.29
'3:05:06.960';-1.06;-2.605
'3:05:06.964';-0.875;-2.605
'3:05:06.968';-0.6;-2.48
'3:05:06.972';-0.595;-2.155
'3:05:06.976';-0.615;-1.58
'3:05:06.980';-0.545;-1.075
'3:05:06.984';-0.475;-0.685
'3:05:06.988';-0.52;-0.385
'3:05:06.992';-0.62;-0.195
'3:05:06.996';-0.565;-0.115
'3:05:07.000';-0.43;-0.06
'3:05:07.004';-0.48;-0.09
'3:05:07.008';-0.58;-0.065
'3:05:07.012';-0.53;-0.02
'3:05:07.016';-0.44;-0.005
'3:05:07.020';-0.495;0.03
'3:05:07.024';-0.605;0.02
'3:05:07.028';-0.57;0.015
'3:05:07.032';-0.445;0.03
'3:05:07.036';-0.47;0.02
'3:05:07.040';-0.575;0
'3:05:07.044';-0.57;0.03
'3:05:07.048';-0.44;0.075
'3:05:07.052';-0.435;0.06
'3:05:07.056';-0.555;0.07
'3:05:07.060';-0.56;0.09
'3:05:07.064';-0.45;0.11
'3:05:07.068';-0.43;0.08
'3:05:07.072';-0.525;0.08
'3:05:07.076';-0.525;0.12
'3:05:07.080';-0.4;0.13
'3:05:07.084';-0.355;0.115
'3:05:07.088';-0.43;0.15
'3:05:07.092';-0.445;0.205
'3:05:07.096';-0.335;0.23
'3:05:07.100';-0.265;0.24
'3:05:07.104';-0.335;0.205
'3:05:07.108';-0.36;0.3
'3:05:07.112';-0.245;0.35
'3:05:07.116';-0.16;0.35
'3:05:07.120';-0.21;0.36
'3:05:07.124';-0.255;0.43
'3:05:07.128';-0.16;0.45
'3:05:07.132';-0.015;0.475
'3:05:07.136';-0.06;0.55
'3:05:07.140';-0.095;0.58
'3:05:07.144';-0.025;0.575
'3:05:07.148';0.115;0.63
'3:05:07.152';0.075;0.655
'3:05:07.156';0.025;0.725
'3:05:07.160';0.075;0.715
'3:05:07.164';0.205;0.69
'3:05:07.168';0.17;0.685
'3:05:07.172';0.075;0.725
'3:05:07.176';0.085;0.76
'3:05:07.180';0.2;0.78
'3:05:07.184';0.175;0.75
'3:05:07.188';0.035;0.75
'3:05:07.192';0.02;0.775
'3:05:07.196';0.045;0.79
'3:05:07.200';0.035;0.715
'3:05:07.204';-0.115;0.64
'3:05:07.208';-0.15;0.635
'3:05:07.212';-0.11;0.595
'3:05:07.216';-0.1;0.56
'3:05:07.220';-0.27;0.525
'3:05:07.224';-0.36;0.475
'3:05:07.228';-0.29;0.49
'3:05:07.232';-0.265;0.385
'3:05:07.236';-0.4;0.355
'3:05:07.240';-0.455;0.295
'3:05:07.244';-0.37;0.21
'3:05:07.248';-0.315;0.165
'3:05:07.252';-0.43;0.125
'3:05:07.256';-0.505;0.11
'3:05:07.260';-0.42;0.09
'3:05:07.264';-0.385;0.005
'3:05:07.268';-0.46;-0.02
'3:05:07.272';-0.545;-0.02
'3:05:07.276';-0.465;-0.03
'3:05:07.280';-0.355;-0.035
'3:05:07.284';-0.45;-0.025
'3:05:07.288';-0.545;-0.045
'3:05:07.292';-0.46;-0.035
'3:05:07.296';-0.355;-0.04
'3:05:07.300';-0.435;-0.06
'3:05:07.304';-0.525;-0.04
'3:05:07.308';-0.445;-0.065
'3:05:07.312';-0.335;-0.025
'3:05:07.316';-0.4;-0.03
'3:05:07.320';-0.5;-0.005
'3:05:07.324';-0.45;0
'3:05:07.328';-0.34;0.03
'3:05:07.332';-0.39;-0.015
'3:05:07.336';-0.51;-0.025
'3:05:07.340';-0.47;-0.02
'3:05:07.344';-0.355;0
'3:05:07.348';-0.36;-0.005
'3:05:07.352';-0.5;0.005
'3:05:07.356';-0.5;0
'3:05:07.360';-0.39;-0.005
'3:05:07.364';-0.4;-0.03
'3:05:07.368';-0.505;-0.045
'3:05:07.372';-0.49;-0.005
'3:05:07.376';-0.405;-0.01
'3:05:07.380';-0.41;-0.05
'3:05:07.384';-0.51;-0.03
'3:05:07.388';-0.535;0.005
'3:05:07.392';-0.415;-0.04
'3:05:07.396';-0.4;-0.11
'3:05:07.400';-0.535;-0.09
'3:05:07.404';-0.505;-0.06
'3:05:07.408';-0.385;-0.05
'3:05:07.412';-0.38;-0.06
'3:05:07.416';-0.475;-0.04
'3:05:07.420';-0.52;-0.01
'3:05:07.424';-0.44;-0.02
'3:05:07.428';-0.38;-0.03
'3:05:07.432';-0.49;-0.09
'3:05:07.436';-0.53;-0.09
'3:05:07.440';-0.445;-0.04
'3:05:07.444';-0.37;-0.05
'3:05:07.448';-0.495;-0.095
'3:05:07.452';-0.555;-0.055
'3:05:07.456';-0.46;-0.005
'3:05:07.460';-0.43;-0.02
'3:05:07.464';-0.495;-0.08
'3:05:07.468';-0.565;-0.085
'3:05:07.472';-0.46;-0.065
'3:05:07.476';-0.41;-0.08
'3:05:07.480';-0.48;-0.07
'3:05:07.484';-0.565;-0.065
'3:05:07.488';-0.495;-0.105
'3:05:07.492';-0.37;-0.08
'3:05:07.496';-0.44;-0.06
'3:05:07.500';-0.47;-0.055
'3:05:07.504';-0.34;-0.045
'3:05:07.508';-0.195;-0.01
'3:05:07.512';-0.24;0
'3:05:07.516';-0.29;0.025
'3:05:07.520';-0.24;0.045
'3:05:07.524';-0.12;0.065
'3:05:07.528';-0.18;0.11
'3:05:07.532';-0.27;0.135
'3:05:07.536';-0.2;0.16
'3:05:07.540';-0.1;0.145
'3:05:07.544';-0.205;0.125
'3:05:07.548';-0.355;0.08
'3:05:07.552';-0.395;0.09
'3:05:07.556';-0.29;0.04
'3:05:07.560';-0.295;-0.03
'3:05:07.564';-0.435;-0.105
'3:05:07.568';-0.425;-0.13
'3:05:07.572';-0.375;-0.185
'3:05:07.576';-0.4;-0.18
'3:05:07.580';-0.55;-0.185
'3:05:07.584';-0.6;-0.15
'3:05:07.588';-0.525;-0.13
'3:05:07.592';-0.495;-0.15
'3:05:07.596';-0.655;-0.115
'3:05:07.600';-0.65;-0.075
'3:05:07.604';-0.555;-0.12
'3:05:07.608';-0.52;-0.16
'3:05:07.612';-0.62;-0.185
'3:05:07.616';-0.67;-0.16
'3:05:07.620';-0.55;-0.125
'3:05:07.624';-0.515;-0.18
'3:05:07.628';-0.615;-0.175
'3:05:07.632';-0.63;-0.14
'3:05:07.636';-0.555;-0.125
'3:05:07.640';-0.57;-0.135
'3:05:07.644';-0.685;-0.14
'3:05:07.648';-0.66;-0.085
'3:05:07.652';-0.34;0.01
'3:05:07.656';0.01;0.09
'3:05:07.660';0.285;0.22
'3:05:07.664';0.61;0.28
'3:05:07.668';1.045;0.38
'3:05:07.672';1.345;0.56
'3:05:07.676';1.055;0.475
'3:05:07.680';0.415;-0.115
'3:05:07.684';-0.135;-0.82
'3:05:07.688';-0.505;-1.36
'3:05:07.692';-0.9;-1.815
'3:05:07.696';-1.085;-2.19
'3:05:07.700';-1.01;-2.405
'3:05:07.704';-0.75;-2.465
'3:05:07.708';-0.6;-2.34
'3:05:07.712';-0.61;-1.93
'3:05:07.716';-0.555;-1.35
'3:05:07.720';-0.455;-0.88
'3:05:07.724';-0.49;-0.52
'3:05:07.728';-0.595;-0.26
'3:05:07.732';-0.57;-0.15
'3:05:07.736';-0.455;-0.07
'3:05:07.740';-0.48;-0.055
'3:05:07.744';-0.58;-0.03
'3:05:07.748';-0.59;0.025
'3:05:07.752';-0.475;0.06
'3:05:07.756';-0.48;0.045
'3:05:07.760';-0.565;0.025
'3:05:07.764';-0.605;0.02
'3:05:07.768';-0.47;0.045
'3:05:07.772';-0.435;0.04
'3:05:07.776';-0.515;0.045
'3:05:07.780';-0.535;0.07
'3:05:07.784';-0.44;0.095
'3:05:07.788';-0.42;0.08
'3:05:07.792';-0.545;0.08
'3:05:07.796';-0.565;0.14
'3:05:07.800';-0.445;0.135
'3:05:07.804';-0.38;0.165
'3:05:07.808';-0.46;0.135
'3:05:07.812';-0.485;0.16
'3:05:07.816';-0.375;0.175
'3:05:07.820';-0.305;0.205
'3:05:07.824';-0.415;0.19
'3:05:07.828';-0.445;0.24
'3:05:07.832';-0.315;0.24
'3:05:07.836';-0.25;0.26
'3:05:07.840';-0.32;0.27
'3:05:07.844';-0.35;0.31
'3:05:07.848';-0.25;0.335
'3:05:07.852';-0.13;0.395
'3:05:07.856';-0.19;0.38
'3:05:07.860';-0.225;0.435
'3:05:07.864';-0.125;0.445
'3:05:07.868';0;0.48
'3:05:07.872';-0.05;0.51
'3:05:07.876';-0.09;0.545
'3:05:07.880';-0.01;0.57
'3:05:07.884';0.11;0.64
'3:05:07.888';0.07;0.655
'3:05:07.892';0.005;0.735
'3:05:07.896';0.1;0.71
'3:05:07.900';0.245;0.73
'3:05:07.904';0.21;0.74
'3:05:07.908';0.14;0.79
'3:05:07.912';0.175;0.825
'3:05:07.916';0.27;0.805
'3:05:07.920';0.205;0.805
'3:05:07.924';0.075;0.805
'3:05:07.928';0.105;0.795
'3:05:07.932';0.19;0.81
'3:05:07.936';0.09;0.775
'3:05:07.940';-0.055;0.775
'3:05:07.944';-0.075;0.755
'3:05:07.948';-0.02;0.7
'3:05:07.952';-0.06;0.62
'3:05:07.956';-0.195;0.595
'3:05:07.960';-0.235;0.575
'3:05:07.964';-0.17;0.55
'3:05:07.968';-0.175;0.465
'3:05:07.972';-0.325;0.44
'3:05:07.976';-0.39;0.36
'3:05:07.980';-0.28;0.295
'3:05:07.984';-0.265;0.255
'3:05:07.988';-0.39;0.175
'3:05:07.992';-0.445;0.135
'3:05:07.996';-0.345;0.15
'3:05:08.000';-0.33;0.13
'3:05:08.004';-0.41;0.125
'3:05:08.008';-0.46;0.14
'3:05:08.012';-0.355;0.09
'3:05:08.016';-0.315;0.035
'3:05:08.020';-0.415;0.015
'3:05:08.024';-0.455;0.045
'3:05:08.028';-0.345;0.055
'3:05:08.032';-0.33;0.02
'3:05:08.036';-0.42;0.015
'3:05:08.040';-0.465;0.025
'3:05:08.044';-0.345;0.045
'3:05:08.048';-0.295;0.06
'3:05:08.052';-0.41;0.04
'3:05:08.056';-0.5;0.06
'3:05:08.060';-0.425;0.035
'3:05:08.064';-0.31;0.015
'3:05:08.068';-0.4;0.015
'3:05:08.072';-0.495;0.065
'3:05:08.076';-0.4;0.075
'3:05:08.080';-0.3;0.065
'3:05:08.084';-0.385;0.03
'3:05:08.088';-0.485;0.05
'3:05:08.092';-0.43;0.085
'3:05:08.096';-0.335;0.085
'3:05:08.100';-0.4;0.08
'3:05:08.104';-0.505;0.04
'3:05:08.108';-0.46;0.05
'3:05:08.112';-0.38;0.02
'3:05:08.116';-0.395;0.02
'3:05:08.120';-0.48;0.02
'3:05:08.124';-0.465;0.055
'3:05:08.128';-0.365;0.05
'3:05:08.132';-0.395;0.025
'3:05:08.136';-0.53;0.015
'3:05:08.140';-0.475;0.04
'3:05:08.144';-0.38;0.04
'3:05:08.148';-0.37;0
'3:05:08.152';-0.495;-0.025
'3:05:08.156';-0.5;-0.01
'3:05:08.160';-0.425;-0.015
'3:05:08.164';-0.415;0.005
'3:05:08.168';-0.53;0.005
'3:05:08.172';-0.54;-0.045
'3:05:08.176';-0.405;-0.045
'3:05:08.180';-0.38;-0.05
'3:05:08.184';-0.525;-0.015
'3:05:08.188';-0.55;-0.04
'3:05:08.192';-0.445;-0.025
'3:05:08.196';-0.415;-0.09
'3:05:08.200';-0.49;-0.085
'3:05:08.204';-0.555;-0.055
'3:05:08.208';-0.455;-0.015
'3:05:08.212';-0.385;-0.01
'3:05:08.216';-0.465;0
'3:05:08.220';-0.535;-0.035
'3:05:08.224';-0.465;-0.035
'3:05:08.228';-0.375;-0.025
'3:05:08.232';-0.465;-0.085
'3:05:08.236';-0.52;-0.025
'3:05:08.240';-0.415;-0.01
'3:05:08.244';-0.27;-0.03
'3:05:08.248';-0.3;-0.06
'3:05:08.252';-0.37;-0.035
'3:05:08.256';-0.32;0.005
'3:05:08.260';-0.18;-0.01
'3:05:08.264';-0.22;0.015
'3:05:08.268';-0.275;0.055
'3:05:08.272';-0.21;0.13
'3:05:08.276';-0.12;0.13
'3:05:08.280';-0.195;0.135
'3:05:08.284';-0.32;0.13
'3:05:08.288';-0.32;0.1
'3:05:08.292';-0.235;0.05
'3:05:08.296';-0.33;0.02
'3:05:08.300';-0.44;-0.03
'3:05:08.304';-0.39;-0.075
'3:05:08.308';-0.285;-0.12
'3:05:08.312';-0.31;-0.18
'3:05:08.316';-0.465;-0.17
'3:05:08.320';-0.515;-0.1
'3:05:08.324';-0.47;-0.115
'3:05:08.328';-0.5;-0.205
'3:05:08.332';-0.65;-0.18
'3:05:08.336';-0.675;-0.15
'3:05:08.340';-0.565;-0.14
'3:05:08.344';-0.545;-0.16
'3:05:08.348';-0.665;-0.145
'3:05:08.352';-0.68;-0.155
'3:05:08.356';-0.585;-0.14
'3:05:08.360';-0.55;-0.17
'3:05:08.364';-0.625;-0.2
'3:05:08.368';-0.675;-0.205
'3:05:08.372';-0.56;-0.2
'3:05:08.376';-0.555;-0.22
'3:05:08.380';-0.705;-0.235
'3:05:08.384';-0.75;-0.175
'3:05:08.388';-0.615;-0.15
'3:05:08.392';-0.405;-0.12
'3:05:08.396';-0.26;-0.025
'3:05:08.400';0.005;0.145
'3:05:08.404';0.52;0.29
'3:05:08.408';0.975;0.285
'3:05:08.412';1.23;0.37
'3:05:08.416';1.195;0.605
'3:05:08.420';0.79;0.425
'3:05:08.424';0.175;-0.225
'3:05:08.428';-0.44;-0.935
'3:05:08.432';-0.86;-1.31
'3:05:08.436';-0.96;-1.685
'3:05:08.440';-0.885;-1.995
'3:05:08.444';-0.92;-2.26
'3:05:08.448';-0.875;-2.325
'3:05:08.452';-0.63;-2.075
'3:05:08.456';-0.48;-1.665
'3:05:08.460';-0.6;-1.24
'3:05:08.464';-0.66;-0.8
'3:05:08.468';-0.57;-0.45
'3:05:08.472';-0.48;-0.295
'3:05:08.476';-0.58;-0.18
'3:05:08.480';-0.645;-0.125
'3:05:08.484';-0.565;-0.075
'3:05:08.488';-0.485;-0.045
'3:05:08.492';-0.55;-0.075
'3:05:08.496';-0.62;-0.08
'3:05:08.500';-0.54;-0.055
'3:05:08.504';-0.465;-0.01
'3:05:08.508';-0.52;-0.02
'3:05:08.512';-0.61;-0.04
'3:05:08.516';-0.515;-0.005
'3:05:08.520';-0.43;0.02
'3:05:08.524';-0.51;-0.005
'3:05:08.528';-0.6;0.025
'3:05:08.532';-0.53;0.06
'3:05:08.536';-0.415;0.04
'3:05:08.540';-0.475;0
'3:05:08.544';-0.555;0.02
'3:05:08.548';-0.51;0.03
'3:05:08.552';-0.42;0.07
'3:05:08.556';-0.45;0.055
'3:05:08.560';-0.545;0.09
'3:05:08.564';-0.455;0.105
'3:05:08.568';-0.345;0.145
'3:05:08.572';-0.355;0.13
'3:05:08.576';-0.465;0.165
'3:05:08.580';-0.395;0.18
'3:05:08.584';-0.255;0.21
'3:05:08.588';-0.235;0.245
'3:05:08.592';-0.335;0.2
'3:05:08.596';-0.335;0.22
'3:05:08.600';-0.19;0.26
'3:05:08.604';-0.16;0.28
'3:05:08.608';-0.245;0.325
'3:05:08.612';-0.205;0.39
'3:05:08.616';-0.04;0.435
'3:05:08.620';0.025;0.445
'3:05:08.624';-0.055;0.485
'3:05:08.628';-0.01;0.54
'3:05:08.632';0.11;0.58
'3:05:08.636';0.19;0.62
'3:05:08.640';0.085;0.625
'3:05:08.644';0.055;0.66
'3:05:08.648';0.155;0.665
'3:05:08.652';0.19;0.665
'3:05:08.656';0.085;0.63
'3:05:08.660';0.04;0.63
'3:05:08.664';0.09;0.635
'3:05:08.668';0.11;0.66
'3:05:08.672';-0.04;0.65
'3:05:08.676';-0.12;0.635
'3:05:08.680';-0.065;0.64
'3:05:08.684';-0.035;0.61
'3:05:08.688';-0.18;0.585
'3:05:08.692';-0.285;0.575
'3:05:08.696';-0.22;0.535
'3:05:08.700';-0.195;0.455
'3:05:08.704';-0.305;0.37
'3:05:08.708';-0.405;0.315
'3:05:08.712';-0.35;0.28
'3:05:08.716';-0.29;0.24
'3:05:08.720';-0.4;0.185
'3:05:08.724';-0.505;0.185
'3:05:08.728';-0.445;0.195
'3:05:08.732';-0.38;0.2
'3:05:08.736';-0.45;0.13
'3:05:08.740';-0.56;0.075
'3:05:08.744';-0.51;0.045
'3:05:08.748';-0.375;0.01
'3:05:08.752';-0.455;-0.03
'3:05:08.756';-0.55;-0.02
'3:05:08.760';-0.495;0.02
'3:05:08.764';-0.37;0.03
'3:05:08.768';-0.405;-0.01
'3:05:08.772';-0.525;-0.04
'3:05:08.776';-0.51;-0.045
'3:05:08.780';-0.39;-0.005
'3:05:08.784';-0.405;-0.04
'3:05:08.788';-0.495;-0.03
'3:05:08.792';-0.465;0
'3:05:08.796';-0.33;0.01
'3:05:08.800';-0.36;-0.035
'3:05:08.804';-0.49;-0.02
'3:05:08.808';-0.52;-0.015
'3:05:08.812';-0.42;0.02
'3:05:08.816';-0.42;0.03
'3:05:08.820';-0.555;0.01
'3:05:08.824';-0.545;0.005
'3:05:08.828';-0.375;0.01
'3:05:08.832';-0.355;0.015
'3:05:08.836';-0.48;-0.02
'3:05:08.840';-0.52;0
'3:05:08.844';-0.39;0.045
'3:05:08.848';-0.34;0.04
'3:05:08.852';-0.455;0.005
'3:05:08.856';-0.52;0.03
'3:05:08.860';-0.44;0.005
'3:05:08.864';-0.35;-0.05
'3:05:08.868';-0.48;-0.05
'3:05:08.872';-0.565;-0.005
'3:05:08.876';-0.485;0.005
'3:05:08.880';-0.42;-0.04
'3:05:08.884';-0.495;-0.07
'3:05:08.888';-0.56;-0.02
'3:05:08.892';-0.46;0
'3:05:08.896';-0.365;-0.01
'3:05:08.900';-0.44;-0.075
'3:05:08.904';-0.515;-0.035
'3:05:08.908';-0.47;-0.02
'3:05:08.912';-0.375;-0.04
'3:05:08.916';-0.45;-0.08
'3:05:08.920';-0.545;-0.035
'3:05:08.924';-0.49;-0.06
'3:05:08.928';-0.38;-0.02
'3:05:08.932';-0.45;-0.045
'3:05:08.936';-0.58;-0.045
'3:05:08.940';-0.535;-0.035
'3:05:08.944';-0.425;-0.045
'3:05:08.948';-0.45;-0.1
'3:05:08.952';-0.55;-0.1
'3:05:08.956';-0.52;-0.08
'3:05:08.960';-0.42;-0.08
'3:05:08.964';-0.44;-0.13
'3:05:08.968';-0.61;-0.07
'3:05:08.972';-0.59;-0.03
'3:05:08.976';-0.42;-0.025
'3:05:08.980';-0.405;-0.045
'3:05:08.984';-0.475;-0.065
'3:05:08.988';-0.45;-0.1
'3:05:08.992';-0.32;-0.095
'3:05:08.996';-0.29;-0.075
'3:05:09.000';-0.35;-0.04
'3:05:09.004';-0.33;-0.05
'3:05:09.008';-0.23;0.02
'3:05:09.012';-0.18;0.045
'3:05:09.016';-0.24;0.055
'3:05:09.020';-0.22;0.085
'3:05:09.024';-0.125;0.115
'3:05:09.028';-0.13;0.15
'3:05:09.032';-0.275;0.155
'3:05:09.036';-0.34;0.125
'3:05:09.040';-0.265;0.065
'3:05:09.044';-0.25;0.02
'3:05:09.048';-0.37;-0.025
'3:05:09.052';-0.435;-0.035
'3:05:09.056';-0.345;-0.095
'3:05:09.060';-0.305;-0.155
'3:05:09.064';-0.43;-0.18
'3:05:09.068';-0.525;-0.15
'3:05:09.072';-0.505;-0.1
'3:05:09.076';-0.5;-0.125
'3:05:09.080';-0.62;-0.17
'3:05:09.084';-0.66;-0.17
'3:05:09.088';-0.585;-0.125
'3:05:09.092';-0.54;-0.12
'3:05:09.096';-0.6;-0.14
'3:05:09.100';-0.675;-0.13
'3:05:09.104';-0.59;-0.16
'3:05:09.108';-0.51;-0.175
'3:05:09.112';-0.54;-0.205
'3:05:09.116';-0.655;-0.18
'3:05:09.120';-0.605;-0.155
'3:05:09.124';-0.54;-0.125
'3:05:09.128';-0.595;-0.155
'3:05:09.132';-0.75;-0.155
'3:05:09.136';-0.65;-0.17
'3:05:09.140';-0.385;-0.14
'3:05:09.144';-0.22;-0.065
'3:05:09.148';0.01;0.1
'3:05:09.152';0.465;0.27
'3:05:09.156';0.985;0.33
'3:05:09.160';1.275;0.365
'3:05:09.164';1.215;0.6
'3:05:09.168';0.785;0.555
'3:05:09.172';0.23;-0.045
'3:05:09.176';-0.325;-0.76
'3:05:09.180';-0.865;-1.27
'3:05:09.184';-1.06;-1.56
'3:05:09.188';-0.965;-1.84
'3:05:09.192';-0.905;-2.02
'3:05:09.196';-0.875;-2.195
'3:05:09.200';-0.71;-2.1
'3:05:09.204';-0.495;-1.745
'3:05:09.208';-0.485;-1.34
'3:05:09.212';-0.635;-0.94
'3:05:09.216';-0.65;-0.545
'3:05:09.220';-0.52;-0.29
'3:05:09.224';-0.505;-0.17
'3:05:09.228';-0.61;-0.115
'3:05:09.232';-0.64;-0.04
'3:05:09.236';-0.525;-0.035
'3:05:09.240';-0.48;-0.045
'3:05:09.244';-0.615;-0.06
'3:05:09.248';-0.66;-0.055
'3:05:09.252';-0.53;-0.02
'3:05:09.256';-0.495;-0.055
'3:05:09.260';-0.585;-0.03
'3:05:09.264';-0.63;-0.04
'3:05:09.268';-0.545;-0.025
'3:05:09.272';-0.47;-0.025
'3:05:09.276';-0.545;-0.025
'3:05:09.280';-0.64;0.02
'3:05:09.284';-0.53;0.04
'3:05:09.288';-0.43;0.045
'3:05:09.292';-0.505;0.04
'3:05:09.296';-0.585;0.025
'3:05:09.300';-0.515;0.06
'3:05:09.304';-0.395;0.055
'3:05:09.308';-0.445;0.055
'3:05:09.312';-0.54;0.06
'3:05:09.316';-0.445;0.095
'3:05:09.320';-0.345;0.13
'3:05:09.324';-0.415;0.11
'3:05:09.328';-0.48;0.15
'3:05:09.332';-0.39;0.19
'3:05:09.336';-0.27;0.23
'3:05:09.340';-0.335;0.205
'3:05:09.344';-0.395;0.235
'3:05:09.348';-0.315;0.265
'3:05:09.352';-0.18;0.335
'3:05:09.356';-0.195;0.305
'3:05:09.360';-0.265;0.325
'3:05:09.364';-0.18;0.405
'3:05:09.368';-0.04;0.43
'3:05:09.372';-0.055;0.44
'3:05:09.376';-0.13;0.45
'3:05:09.380';-0.095;0.52
'3:05:09.384';0.06;0.575
'3:05:09.388';0.08;0.585
'3:05:09.392';0;0.585
'3:05:09.396';0.025;0.605
'3:05:09.400';0.14;0.64
'3:05:09.404';0.15;0.715
'3:05:09.408';0.035;0.71
'3:05:09.412';0;0.715
'3:05:09.416';0.06;0.715
'3:05:09.420';0.055;0.66
'3:05:09.424';-0.09;0.615
'3:05:09.428';-0.195;0.62
'3:05:09.432';-0.11;0.6
'3:05:09.436';-0.105;0.565
'3:05:09.440';-0.265;0.53
'3:05:09.444';-0.35;0.48
'3:05:09.448';-0.27;0.45
'3:05:09.452';-0.31;0.415
'3:05:09.456';-0.42;0.35
'3:05:09.460';-0.49;0.27
'3:05:09.464';-0.405;0.195
'3:05:09.468';-0.38;0.14
'3:05:09.472';-0.51;0.095
'3:05:09.476';-0.565;0.07
'3:05:09.480';-0.5;0.06
'3:05:09.484';-0.445;0.02
'3:05:09.488';-0.515;0
'3:05:09.492';-0.6;0
'3:05:09.496';-0.49;0.01
'3:05:09.500';-0.415;-0.04
'3:05:09.504';-0.505;-0.025
'3:05:09.508';-0.59;-0.02
'3:05:09.512';-0.54;0
'3:05:09.516';-0.465;-0.01
'3:05:09.520';-0.525;-0.09
'3:05:09.524';-0.605;-0.08
'3:05:09.528';-0.535;-0.06
'3:05:09.532';-0.44;-0.045
'3:05:09.536';-0.485;-0.08
'3:05:09.540';-0.58;-0.03
'3:05:09.544';-0.55;-0.055
'3:05:09.548';-0.45;-0.025
'3:05:09.552';-0.475;0
'3:05:09.556';-0.56;-0.005
'3:05:09.560';-0.54;-0.06
'3:05:09.564';-0.43;-0.075
'3:05:09.568';-0.465;-0.12
'3:05:09.572';-0.56;-0.08
'3:05:09.576';-0.545;-0.05
'3:05:09.580';-0.435;-0.035
'3:05:09.584';-0.44;-0.035
'3:05:09.588';-0.545;-0.07
'3:05:09.592';-0.565;-0.025
'3:05:09.596';-0.465;0.005
'3:05:09.600';-0.41;0.02
'3:05:09.604';-0.505;-0.005
'3:05:09.608';-0.55;-0.055
'3:05:09.612';-0.455;-0.07
'3:05:09.616';-0.425;-0.07
'3:05:09.620';-0.495;-0.07
'3:05:09.624';-0.56;-0.02
'3:05:09.628';-0.45;-0.045
'3:05:09.632';-0.41;-0.045
'3:05:09.636';-0.53;-0.025
'3:05:09.640';-0.57;0
'3:05:09.644';-0.495;-0.015
'3:05:09.648';-0.445;-0.035
'3:05:09.652';-0.53;-0.05
'3:05:09.656';-0.6;-0.09
'3:05:09.660';-0.51;-0.08
'3:05:09.664';-0.465;-0.06
'3:05:09.668';-0.525;-0.07
'3:05:09.672';-0.605;-0.085
'3:05:09.676';-0.535;-0.055
'3:05:09.680';-0.48;-0.05
'3:05:09.684';-0.52;-0.04
'3:05:09.688';-0.6;-0.06
'3:05:09.692';-0.5;-0.05
'3:05:09.696';-0.415;-0.06
'3:05:09.700';-0.465;-0.11
'3:05:09.704';-0.57;-0.13
'3:05:09.708';-0.54;-0.06
'3:05:09.712';-0.455;-0.045
'3:05:09.716';-0.46;-0.055
'3:05:09.720';-0.545;-0.08
'3:05:09.724';-0.55;-0.06
'3:05:09.728';-0.42;-0.02
'3:05:09.732';-0.425;-0.05
'3:05:09.736';-0.45;-0.07
'3:05:09.740';-0.415;-0.025
'3:05:09.744';-0.275;-0.01
'3:05:09.748';-0.23;-0.04
'3:05:09.752';-0.33;0
'3:05:09.756';-0.29;0.06
'3:05:09.760';-0.17;0.085
'3:05:09.764';-0.085;0.085
'3:05:09.768';-0.22;0.12
'3:05:09.772';-0.28;0.145
'3:05:09.776';-0.205;0.185
'3:05:09.780';-0.195;0.185
'3:05:09.784';-0.36;0.135
'3:05:09.788';-0.45;0.125
'3:05:09.792';-0.345;0.085
'3:05:09.796';-0.3;0.01
'3:05:09.800';-0.395;-0.08
'3:05:09.804';-0.475;-0.135
'3:05:09.808';-0.445;-0.18
'3:05:09.812';-0.37;-0.16
'3:05:09.816';-0.55;-0.145
'3:05:09.820';-0.63;-0.14
'3:05:09.824';-0.6;-0.125
'3:05:09.828';-0.555;-0.14
'3:05:09.832';-0.625;-0.185
'3:05:09.836';-0.715;-0.15
'3:05:09.840';-0.66;-0.14
'3:05:09.844';-0.59;-0.145
'3:05:09.848';-0.65;-0.14
'3:05:09.852';-0.695;-0.16
'3:05:09.856';-0.68;-0.13
'3:05:09.860';-0.555;-0.165
'3:05:09.864';-0.59;-0.175
'3:05:09.868';-0.69;-0.17
'3:05:09.872';-0.67;-0.2
'3:05:09.876';-0.6;-0.155
'3:05:09.880';-0.66;-0.165
'3:05:09.884';-0.68;-0.155
'3:05:09.888';-0.445;-0.07
'3:05:09.892';-0.035;0.08
'3:05:09.896';0.345;0.165
'3:05:09.900';0.625;0.285
'3:05:09.904';1;0.365
'3:05:09.908';1.33;0.56
'3:05:09.912';1.235;0.465
'3:05:09.916';0.59;-0.075
'3:05:09.920';-0.1;-0.88
'3:05:09.924';-0.535;-1.455
'3:05:09.928';-0.84;-1.93
'3:05:09.932';-1.05;-2.37
'3:05:09.936';-1.075;-2.62
'3:05:09.940';-0.865;-2.64
'3:05:09.944';-0.64;-2.54
'3:05:09.948';-0.615;-2.18
'3:05:09.952';-0.66;-1.6
'3:05:09.956';-0.58;-1.065
'3:05:09.960';-0.49;-0.7
'3:05:09.964';-0.58;-0.43
'3:05:09.968';-0.63;-0.24
'3:05:09.972';-0.58;-0.15
'3:05:09.976';-0.47;-0.115
'3:05:09.980';-0.56;-0.075
'3:05:09.984';-0.64;-0.045
'3:05:09.988';-0.585;-0.015
'3:05:09.992';-0.47;-0.005
'3:05:09.996';-0.505;0.005
'3:05:10.000';-0.605;0.03
'3:05:10.004';-0.565;0.04
'3:05:10.008';-0.48;0.015
'3:05:10.012';-0.525;0.03
'3:05:10.016';-0.6;0
'3:05:10.020';-0.59;0.04
'3:05:10.024';-0.465;0.04
'3:05:10.028';-0.475;0.055
'3:05:10.032';-0.54;0.055
'3:05:10.036';-0.565;0.08
'3:05:10.040';-0.44;0.105
'3:05:10.044';-0.425;0.085
'3:05:10.048';-0.53;0.12
'3:05:10.052';-0.52;0.14
'3:05:10.056';-0.415;0.165
'3:05:10.060';-0.335;0.14
'3:05:10.064';-0.415;0.155
'3:05:10.068';-0.485;0.185
'3:05:10.072';-0.365;0.22
'3:05:10.076';-0.27;0.255
'3:05:10.080';-0.355;0.26
'3:05:10.084';-0.39;0.275
'3:05:10.088';-0.28;0.335
'3:05:10.092';-0.17;0.34
'3:05:10.096';-0.225;0.38
'3:05:10.100';-0.24;0.39
'3:05:10.104';-0.16;0.48
'3:05:10.108';-0.03;0.51
'3:05:10.112';-0.02;0.52
'3:05:10.116';-0.12;0.555
'3:05:10.120';-0.03;0.615
'3:05:10.124';0.085;0.635
'3:05:10.128';0.1;0.665
'3:05:10.132';0.015;0.675
'3:05:10.136';0.06;0.725
'3:05:10.140';0.17;0.79
'3:05:10.144';0.17;0.77
'3:05:10.148';0.08;0.785
'3:05:10.152';0.065;0.795
'3:05:10.156';0.205;0.825
'3:05:10.160';0.18;0.82
'3:05:10.164';0.05;0.835
'3:05:10.168';-0.005;0.82
'3:05:10.172';0.05;0.805
'3:05:10.176';0.01;0.79
'3:05:10.180';-0.13;0.75
'3:05:10.184';-0.185;0.715
'3:05:10.188';-0.105;0.67
'3:05:10.192';-0.12;0.65
'3:05:10.196';-0.24;0.6
'3:05:10.200';-0.345;0.525
'3:05:10.204';-0.265;0.49
'3:05:10.208';-0.265;0.405
'3:05:10.212';-0.36;0.355
'3:05:10.216';-0.48;0.325
'3:05:10.220';-0.415;0.3
'3:05:10.224';-0.36;0.22
'3:05:10.228';-0.42;0.14
'3:05:10.232';-0.54;0.08
'3:05:10.236';-0.49;0.075
'3:05:10.240';-0.425;0.06
'3:05:10.244';-0.425;0
'3:05:10.248';-0.54;0
'3:05:10.252';-0.515;0.04
'3:05:10.256';-0.4;-0.015
'3:05:10.260';-0.41;-0.035
'3:05:10.264';-0.525;-0.065
'3:05:10.268';-0.53;-0.04
'3:05:10.272';-0.405;-0.04
'3:05:10.276';-0.415;-0.065
'3:05:10.280';-0.51;-0.08
'3:05:10.284';-0.52;-0.055
'3:05:10.288';-0.42;-0.045
'3:05:10.292';-0.375;-0.01
'3:05:10.296';-0.48;-0.04
'3:05:10.300';-0.5;-0.03
'3:05:10.304';-0.435;0.005
'3:05:10.308';-0.35;0.015
'3:05:10.312';-0.44;-0.02
'3:05:10.316';-0.52;0.005
'3:05:10.320';-0.44;0.03
'3:05:10.324';-0.36;-0.01
'3:05:10.328';-0.455;-0.02
'3:05:10.332';-0.535;-0.055
'3:05:10.336';-0.465;0.03
'3:05:10.340';-0.4;-0.005
'3:05:10.344';-0.465;-0.065
'3:05:10.348';-0.555;-0.045
'3:05:10.352';-0.475;-0.015
'3:05:10.356';-0.425;-0.015
'3:05:10.360';-0.45;-0.065
'3:05:10.364';-0.585;-0.06
'3:05:10.368';-0.54;-0.03
'3:05:10.372';-0.435;-0.04
'3:05:10.376';-0.445;-0.025
'3:05:10.380';-0.56;-0.07
'3:05:10.384';-0.52;-0.025
'3:05:10.388';-0.415;-0.06
'3:05:10.392';-0.435;-0.04
'3:05:10.396';-0.54;-0.08
'3:05:10.400';-0.53;-0.06
'3:05:10.404';-0.43;-0.05
'3:05:10.408';-0.435;-0.03
'3:05:10.412';-0.535;-0.09
'3:05:10.416';-0.545;-0.105
'3:05:10.420';-0.45;-0.08
'3:05:10.424';-0.425;-0.09
'3:05:10.428';-0.515;-0.08
'3:05:10.432';-0.565;-0.085
'3:05:10.436';-0.48;-0.06
'3:05:10.440';-0.46;-0.08
'3:05:10.444';-0.56;-0.105
'3:05:10.448';-0.595;-0.07
'3:05:10.452';-0.52;-0.07
'3:05:10.456';-0.44;-0.06
'3:05:10.460';-0.51;-0.09
'3:05:10.464';-0.605;-0.115
'3:05:10.468';-0.535;-0.08
'3:05:10.472';-0.395;-0.095
'3:05:10.476';-0.41;-0.11
'3:05:10.480';-0.465;-0.12
'3:05:10.484';-0.36;-0.08
'3:05:10.488';-0.22;-0.06
'3:05:10.492';-0.235;-0.12
'3:05:10.496';-0.31;-0.055
'3:05:10.500';-0.28;-0.01
'3:05:10.504';-0.145;0.025
'3:05:10.508';-0.135;0.075
'3:05:10.512';-0.24;0.105
'3:05:10.516';-0.245;0.125
'3:05:10.520';-0.175;0.165
'3:05:10.524';-0.22;0.155
'3:05:10.528';-0.375;0.12
'3:05:10.532';-0.4;0.08
'3:05:10.536';-0.34;0.035
'3:05:10.540';-0.325;-0.02
'3:05:10.544';-0.46;-0.09
'3:05:10.548';-0.485;-0.12
'3:05:10.552';-0.415;-0.145
'3:05:10.556';-0.41;-0.185
'3:05:10.560';-0.555;-0.16
'3:05:10.564';-0.655;-0.115
'3:05:10.568';-0.61;-0.145
'3:05:10.572';-0.565;-0.19
'3:05:10.576';-0.65;-0.22
'3:05:10.580';-0.735;-0.185
'3:05:10.584';-0.655;-0.15
'3:05:10.588';-0.57;-0.195
'3:05:10.592';-0.61;-0.155
'3:05:10.596';-0.72;-0.18
'3:05:10.600';-0.67;-0.13
'3:05:10.604';-0.555;-0.16
'3:05:10.608';-0.565;-0.18
'3:05:10.612';-0.665;-0.2
'3:05:10.616';-0.645;-0.155
'3:05:10.620';-0.6;-0.16
'3:05:10.624';-0.665;-0.21
'3:05:10.628';-0.69;-0.185
'3:05:10.632';-0.52;-0.13
'3:05:10.636';-0.19;-0.045
'3:05:10.640';0.125;0.135
'3:05:10.644';0.395;0.23
'3:05:10.648';0.8;0.31
'3:05:10.652';1.175;0.395
'3:05:10.656';1.215;0.54
'3:05:10.660';0.705;0.3
'3:05:10.664';0.08;-0.405
'3:05:10.668';-0.355;-1.09
'3:05:10.672';-0.775;-1.6
'3:05:10.676';-1.06;-2.045
'3:05:10.680';-1.13;-2.42
'3:05:10.684';-0.97;-2.625
'3:05:10.688';-0.715;-2.615
'3:05:10.692';-0.63;-2.435
'3:05:10.696';-0.655;-1.975
'3:05:10.700';-0.575;-1.4
'3:05:10.704';-0.5;-0.895
'3:05:10.708';-0.55;-0.58
'3:05:10.712';-0.64;-0.34
'3:05:10.716';-0.56;-0.195
'3:05:10.720';-0.505;-0.125
'3:05:10.724';-0.535;-0.09
'3:05:10.728';-0.62;-0.065
'3:05:10.732';-0.595;0
'3:05:10.736';-0.46;0.02
'3:05:10.740';-0.545;0
'3:05:10.744';-0.615;-0.09
'3:05:10.748';-0.605;-0.05
'3:05:10.752';-0.465;0.015
'3:05:10.756';-0.485;-0.01
'3:05:10.760';-0.6;0.045
'3:05:10.764';-0.585;0.03
'3:05:10.768';-0.48;0.045
'3:05:10.772';-0.46;0.015
'3:05:10.776';-0.58;0.035
'3:05:10.780';-0.59;0.085
'3:05:10.784';-0.44;0.125
'3:05:10.788';-0.415;0.12
'3:05:10.792';-0.47;0.075
'3:05:10.796';-0.5;0.11
'3:05:10.800';-0.39;0.115
'3:05:10.804';-0.33;0.13
'3:05:10.808';-0.42;0.175
'3:05:10.812';-0.46;0.205
'3:05:10.816';-0.33;0.2
'3:05:10.820';-0.24;0.205
'3:05:10.824';-0.32;0.25
'3:05:10.828';-0.325;0.265
'3:05:10.832';-0.235;0.3
'3:05:10.836';-0.135;0.34
'3:05:10.840';-0.185;0.36
'3:05:10.844';-0.215;0.41
'3:05:10.848';-0.155;0.41
'3:05:10.852';-0.03;0.465
'3:05:10.856';-0.045;0.46
'3:05:10.860';-0.145;0.495
'3:05:10.864';-0.01;0.555
'3:05:10.868';0.12;0.58
'3:05:10.872';0.09;0.605
'3:05:10.876';0.03;0.625
'3:05:10.880';0.085;0.705
'3:05:10.884';0.22;0.745
'3:05:10.888';0.215;0.73
'3:05:10.892';0.135;0.78
'3:05:10.896';0.175;0.8
'3:05:10.900';0.265;0.8
'3:05:10.904';0.24;0.805
'3:05:10.908';0.14;0.795
'3:05:10.912';0.075;0.805
'3:05:10.916';0.15;0.855
'3:05:10.920';0.125;0.81
'3:05:10.924';-0.025;0.745
'3:05:10.928';-0.11;0.76
'3:05:10.932';-0.065;0.73
'3:05:10.936';-0.07;0.68
'3:05:10.940';-0.21;0.57
'3:05:10.944';-0.32;0.515
'3:05:10.948';-0.23;0.505
'3:05:10.952';-0.21;0.45
'3:05:10.956';-0.315;0.385
'3:05:10.960';-0.41;0.36
'3:05:10.964';-0.34;0.32
'3:05:10.968';-0.28;0.3
'3:05:10.972';-0.375;0.2
'3:05:10.976';-0.48;0.155
'3:05:10.980';-0.38;0.115
'3:05:10.984';-0.3;0.11
'3:05:10.988';-0.37;0.035
'3:05:10.992';-0.445;0.02
'3:05:10.996';-0.38;0.01
'3:05:11.000';-0.295;0.025
'3:05:11.004';-0.365;-0.01
'3:05:11.008';-0.445;0.01
'3:05:11.012';-0.4;0.005
'3:05:11.016';-0.3;0.015
'3:05:11.020';-0.345;-0.015
'3:05:11.024';-0.44;-0.01
'3:05:11.028';-0.415;0.01
'3:05:11.032';-0.34;0
'3:05:11.036';-0.38;0
'3:05:11.040';-0.45;-0.025
'3:05:11.044';-0.44;0.015
'3:05:11.048';-0.345;0
'3:05:11.052';-0.35;-0.005
'3:05:11.056';-0.45;0.05
'3:05:11.060';-0.435;0.055
'3:05:11.064';-0.325;0.06
'3:05:11.068';-0.32;0
'3:05:11.072';-0.42;-0.035
'3:05:11.076';-0.45;-0.01
'3:05:11.080';-0.35;-0.015
'3:05:11.084';-0.325;0.015
'3:05:11.088';-0.415;0.01
'3:05:11.092';-0.46;-0.015
'3:05:11.096';-0.355;0
'3:05:11.100';-0.3;0.015
'3:05:11.104';-0.42;0.015
'3:05:11.108';-0.5;0.015
'3:05:11.112';-0.4;0.07
'3:05:11.116';-0.335;0.005
'3:05:11.120';-0.405;-0.045
'3:05:11.124';-0.49;-0.06
'3:05:11.128';-0.41;-0.015
'3:05:11.132';-0.33;-0.02
'3:05:11.136';-0.415;-0.005
'3:05:11.140';-0.49;-0.015
'3:05:11.144';-0.45;0
'3:05:11.148';-0.375;0.005
'3:05:11.152';-0.395;-0.025
'3:05:11.156';-0.49;-0.03
'3:05:11.160';-0.47;-0.05
'3:05:11.164';-0.375;-0.06
'3:05:11.168';-0.385;-0.055
'3:05:11.172';-0.49;-0.08
'3:05:11.176';-0.495;-0.04
'3:05:11.180';-0.4;-0.04
'3:05:11.184';-0.395;-0.035
'3:05:11.188';-0.48;-0.035
'3:05:11.192';-0.5;-0.01
'3:05:11.196';-0.37;-0.04
'3:05:11.200';-0.345;-0.07
'3:05:11.204';-0.43;-0.08
'3:05:11.208';-0.475;-0.055
'3:05:11.212';-0.415;-0.01
'3:05:11.216';-0.325;-0.045
'3:05:11.220';-0.43;-0.035
'3:05:11.224';-0.435;-0.01
'3:05:11.228';-0.32;-0.005
'3:05:11.232';-0.21;-0.06
'3:05:11.236';-0.3;-0.06
'3:05:11.240';-0.325;-0.03
'3:05:11.244';-0.23;-0.015
'3:05:11.248';-0.16;-0.01
'3:05:11.252';-0.185;-0.015
'3:05:11.256';-0.245;0.045
'3:05:11.260';-0.17;0.105
'3:05:11.264';-0.095;0.13
'3:05:11.268';-0.165;0.145
'3:05:11.272';-0.295;0.155
'3:05:11.276';-0.29;0.17
'3:05:11.280';-0.21;0.095
'3:05:11.284';-0.275;0.04
'3:05:11.288';-0.39;-0.04
'3:05:11.292';-0.38;-0.03
'3:05:11.296';-0.27;-0.06
'3:05:11.300';-0.295;-0.145
'3:05:11.304';-0.465;-0.195
'3:05:11.308';-0.52;-0.15
'3:05:11.312';-0.47;-0.125
'3:05:11.316';-0.445;-0.13
'3:05:11.320';-0.575;-0.15
'3:05:11.324';-0.625;-0.125
'3:05:11.328';-0.56;-0.135
'3:05:11.332';-0.51;-0.13
'3:05:11.336';-0.61;-0.145
'3:05:11.340';-0.67;-0.155
'3:05:11.344';-0.555;-0.13
'3:05:11.348';-0.5;-0.145
'3:05:11.352';-0.565;-0.175
'3:05:11.356';-0.655;-0.18
'3:05:11.360';-0.6;-0.165
'3:05:11.364';-0.515;-0.155
'3:05:11.368';-0.615;-0.135
'3:05:11.372';-0.75;-0.15
'3:05:11.376';-0.64;-0.175
'3:05:11.380';-0.425;-0.16
'3:05:11.384';-0.25;-0.09
'3:05:11.388';-0.01;0.07
'3:05:11.392';0.44;0.27
'3:05:11.396';0.945;0.34
'3:05:11.400';1.23;0.355
'3:05:11.404';1.16;0.5
'3:05:11.408';0.78;0.43
'3:05:11.412';0.265;-0.05
'3:05:11.416';-0.34;-0.765
'3:05:11.420';-0.8;-1.37
'3:05:11.424';-0.925;-1.765
'3:05:11.428';-0.84;-2.07
'3:05:11.432';-0.82;-2.32
'3:05:11.436';-0.785;-2.455
'3:05:11.440';-0.61;-2.285
'3:05:11.444';-0.46;-1.84
'3:05:11.448';-0.515;-1.3
'3:05:11.452';-0.62;-0.855
'3:05:11.456';-0.58;-0.545
'3:05:11.460';-0.5;-0.315
'3:05:11.464';-0.535;-0.215
'3:05:11.468';-0.635;-0.125
'3:05:11.472';-0.605;-0.075
'3:05:11.476';-0.49;-0.02
'3:05:11.480';-0.495;-0.06
'3:05:11.484';-0.615;-0.025
'3:05:11.488';-0.585;0
'3:05:11.492';-0.48;-0.01
'3:05:11.496';-0.48;0.01
'3:05:11.500';-0.6;-0.025
'3:05:11.504';-0.555;0.01
'3:05:11.508';-0.5;0.025
'3:05:11.512';-0.485;0.055
'3:05:11.516';-0.6;0.04
'3:05:11.520';-0.57;0.065
'3:05:11.524';-0.45;0.05
'3:05:11.528';-0.4;0.035
'3:05:11.532';-0.51;0.05
'3:05:11.536';-0.54;0.055
'3:05:11.540';-0.44;0.105
'3:05:11.544';-0.4;0.095
'3:05:11.548';-0.5;0.085
'3:05:11.552';-0.485;0.08
'3:05:11.556';-0.385;0.1
'3:05:11.560';-0.335;0.125
'3:05:11.564';-0.39;0.145
'3:05:11.568';-0.43;0.185
'3:05:11.572';-0.325;0.23
'3:05:11.576';-0.245;0.205
'3:05:11.580';-0.31;0.24
'3:05:11.584';-0.325;0.255
'3:05:11.588';-0.195;0.315
'3:05:11.592';-0.085;0.35
'3:05:11.596';-0.1;0.36
'3:05:11.600';-0.165;0.4
'3:05:11.604';-0.065;0.43
'3:05:11.608';0.05;0.51
'3:05:11.612';0.035;0.52
'3:05:11.616';0.005;0.55
'3:05:11.620';0.095;0.585
'3:05:11.624';0.18;0.61
'3:05:11.628';0.145;0.59
'3:05:11.632';0.075;0.6
'3:05:11.636';0.105;0.68
'3:05:11.640';0.205;0.73
'3:05:11.644';0.165;0.745
'3:05:11.648';0.08;0.715
'3:05:11.652';0.095;0.685
'3:05:11.656';0.155;0.715
'3:05:11.660';0.1;0.69
'3:05:11.664';-0.02;0.67
'3:05:11.668';-0.04;0.68
'3:05:11.672';-0.005;0.66
'3:05:11.676';-0.065;0.64
'3:05:11.680';-0.2;0.575
'3:05:11.684';-0.22;0.6
'3:05:11.688';-0.16;0.53
'3:05:11.692';-0.2;0.465
'3:05:11.696';-0.34;0.42
'3:05:11.700';-0.395;0.38
'3:05:11.704';-0.29;0.335
'3:05:11.708';-0.315;0.28
'3:05:11.712';-0.42;0.205
'3:05:11.716';-0.46;0.19
'3:05:11.720';-0.4;0.195
'3:05:11.724';-0.38;0.145
'3:05:11.728';-0.485;0.075
'3:05:11.732';-0.53;0.06
'3:05:11.736';-0.45;0.065
'3:05:11.740';-0.385;0.025
'3:05:11.744';-0.48;0.005
'3:05:11.748';-0.55;-0.03
'3:05:11.752';-0.445;0
'3:05:11.756';-0.375;-0.01
'3:05:11.760';-0.425;0
'3:05:11.764';-0.51;-0.045
'3:05:11.768';-0.435;-0.04
'3:05:11.772';-0.365;-0.035
'3:05:11.776';-0.43;-0.075
'3:05:11.780';-0.54;-0.05
'3:05:11.784';-0.49;-0.02
'3:05:11.788';-0.38;-0.01
'3:05:11.792';-0.425;-0.02
'3:05:11.796';-0.515;-0.015
'3:05:11.800';-0.46;0.03
'3:05:11.804';-0.375;0.03
'3:05:11.808';-0.425;-0.01
'3:05:11.812';-0.545;-0.025
'3:05:11.816';-0.485;0
'3:05:11.820';-0.37;0.015
'3:05:11.824';-0.415;0.015
'3:05:11.828';-0.5;0.03
'3:05:11.832';-0.455;0.01
'3:05:11.836';-0.37;0.005
'3:05:11.840';-0.425;-0.02
'3:05:11.844';-0.535;-0.025
'3:05:11.848';-0.475;-0.025
'3:05:11.852';-0.415;-0.005
'3:05:11.856';-0.42;-0.025
'3:05:11.860';-0.53;-0.005
'3:05:11.864';-0.53;0
'3:05:11.868';-0.4;-0.04
'3:05:11.872';-0.425;-0.08
'3:05:11.876';-0.545;-0.07
'3:05:11.880';-0.54;-0.075
'3:05:11.884';-0.445;-0.05
'3:05:11.888';-0.395;-0.02
'3:05:11.892';-0.505;-0.055
'3:05:11.896';-0.51;-0.045
'3:05:11.900';-0.425;-0.065
'3:05:11.904';-0.395;-0.07
'3:05:11.908';-0.515;-0.1
'3:05:11.912';-0.55;-0.085
'3:05:11.916';-0.455;-0.04
'3:05:11.920';-0.42;-0.07
'3:05:11.924';-0.51;-0.055
'3:05:11.928';-0.545;-0.04
'3:05:11.932';-0.46;-0.055
'3:05:11.936';-0.425;-0.065
'3:05:11.940';-0.51;-0.085
'3:05:11.944';-0.575;-0.09
'3:05:11.948';-0.49;-0.1
'3:05:11.952';-0.445;-0.1
'3:05:11.956';-0.53;-0.075
'3:05:11.960';-0.56;-0.06
'3:05:11.964';-0.47;-0.065
'3:05:11.968';-0.34;-0.095
'3:05:11.972';-0.4;-0.11
'3:05:11.976';-0.415;-0.105
'3:05:11.980';-0.29;-0.06
'3:05:11.984';-0.215;-0.035
'3:05:11.988';-0.23;-0.08
'3:05:11.992';-0.33;-0.05
'3:05:11.996';-0.275;0.015
'3:05:12.000';-0.17;0.03
'3:05:12.004';-0.175;0.025
'3:05:12.008';-0.25;0.045
'3:05:12.012';-0.23;0.105
'3:05:12.016';-0.165;0.155
'3:05:12.020';-0.25;0.13
'3:05:12.024';-0.375;0.045
'3:05:12.028';-0.31;0.03
'3:05:12.032';-0.235;0.015
'3:05:12.036';-0.32;-0.065
'3:05:12.040';-0.405;-0.14
'3:05:12.044';-0.39;-0.19
'3:05:12.048';-0.325;-0.185
'3:05:12.052';-0.4;-0.205
'3:05:12.056';-0.53;-0.175
'3:05:12.060';-0.555;-0.15
'3:05:12.064';-0.53;-0.18
'3:05:12.068';-0.535;-0.145
'3:05:12.072';-0.67;-0.145
'3:05:12.076';-0.665;-0.14
'3:05:12.080';-0.54;-0.135
'3:05:12.084';-0.535;-0.195
'3:05:12.088';-0.62;-0.19
'3:05:12.092';-0.635;-0.19
'3:05:12.096';-0.535;-0.21
'3:05:12.100';-0.515;-0.23
'3:05:12.104';-0.645;-0.23
'3:05:12.108';-0.635;-0.185
'3:05:12.112';-0.595;-0.15
'3:05:12.116';-0.59;-0.185
'3:05:12.120';-0.66;-0.24
'3:05:12.124';-0.505;-0.225
'3:05:12.128';-0.185;-0.13
'3:05:12.132';0.145;0
'3:05:12.136';0.425;0.16
'3:05:12.140';0.85;0.285
'3:05:12.144';1.21;0.35
'3:05:12.148';1.23;0.465
'3:05:12.152';0.745;0.58
'3:05:12.156';0.055;0.305
'3:05:12.160';-0.385;-0.33
'3:05:12.164';-0.735;-0.955
'3:05:12.168';-1.025;-1.375
'3:05:12.172';-1.095;-1.69
'3:05:12.176';-0.94;-1.93
'3:05:12.180';-0.765;-2.16
'3:05:12.184';-0.68;-2.27
'3:05:12.188';-0.65;-2.03
'3:05:12.192';-0.55;-1.58
'3:05:12.196';-0.48;-1.16
'3:05:12.200';-0.565;-0.82
'3:05:12.204';-0.655;-0.54
'3:05:12.208';-0.61;-0.355
'3:05:12.212';-0.51;-0.225
'3:05:12.216';-0.53;-0.19
'3:05:12.220';-0.605;-0.155
'3:05:12.224';-0.545;-0.145
'3:05:12.228';-0.49;-0.105
'3:05:12.232';-0.555;-0.135
'3:05:12.236';-0.655;-0.12
'3:05:12.240';-0.59;-0.11
'3:05:12.244';-0.49;-0.095
'3:05:12.248';-0.485;-0.08
'3:05:12.252';-0.58;-0.065
'3:05:12.256';-0.555;-0.04
'3:05:12.260';-0.46;-0.025
'3:05:12.264';-0.51;-0.06
'3:05:12.268';-0.645;-0.06
'3:05:12.272';-0.605;-0.045
'3:05:12.276';-0.51;-0.055
'3:05:12.280';-0.46;-0.08
'3:05:12.284';-0.53;-0.075
'3:05:12.288';-0.48;-0.035
'3:05:12.292';-0.36;0.005
'3:05:12.296';-0.345;-0.03
'3:05:12.300';-0.465;-0.015
'3:05:12.304';-0.46;0.03
'3:05:12.308';-0.35;0.03
'3:05:12.312';-0.3;0.045
'3:05:12.316';-0.395;0.04
'3:05:12.320';-0.36;0.095
'3:05:12.324';-0.225;0.12
'3:05:12.328';-0.185;0.145
'3:05:12.332';-0.27;0.125
'3:05:12.336';-0.275;0.16
'3:05:12.340';-0.135;0.225
'3:05:12.344';-0.08;0.235
'3:05:12.348';-0.08;0.275
'3:05:12.352';-0.11;0.28
'3:05:12.356';0.01;0.34
'3:05:12.360';0.09;0.395
'3:05:12.364';0.03;0.395
'3:05:12.368';-0.005;0.42
'3:05:12.372';0.075;0.49
'3:05:12.376';0.13;0.51
'3:05:12.380';0.065;0.52
'3:05:12.384';0.035;0.53
'3:05:12.388';0.1;0.575
'3:05:12.392';0.15;0.575
'3:05:12.396';0.055;0.575
'3:05:12.400';-0.04;0.575
'3:05:12.404';0.005;0.58
'3:05:12.408';0.025;0.575
'3:05:12.412';-0.09;0.505
'3:05:12.416';-0.205;0.45
'3:05:12.420';-0.185;0.485
'3:05:12.424';-0.14;0.435
'3:05:12.428';-0.23;0.375
'3:05:12.432';-0.355;0.305
'3:05:12.436';-0.34;0.295
'3:05:12.440';-0.285;0.27
'3:05:12.444';-0.375;0.22
'3:05:12.448';-0.485;0.14
'3:05:12.452';-0.475;0.105
'3:05:12.456';-0.42;0.06
'3:05:12.460';-0.465;0.04
'3:05:12.464';-0.595;-0.035
'3:05:12.468';-0.52;-0.04
'3:05:12.472';-0.48;-0.075
'3:05:12.476';-0.49;-0.085
'3:05:12.480';-0.575;-0.095
'3:05:12.484';-0.55;-0.12
'3:05:12.488';-0.445;-0.11
'3:05:12.492';-0.46;-0.095
'3:05:12.496';-0.585;-0.125
'3:05:12.500';-0.555;-0.13
'3:05:12.504';-0.46;-0.15
'3:05:12.508';-0.465;-0.17
'3:05:12.512';-0.58;-0.145
'3:05:12.516';-0.57;-0.14
'3:05:12.520';-0.465;-0.14
'3:05:12.524';-0.435;-0.145
'3:05:12.528';-0.56;-0.115
'3:05:12.532';-0.565;-0.155
'3:05:12.536';-0.49;-0.13
'3:05:12.540';-0.46;-0.165
'3:05:12.544';-0.55;-0.16
'3:05:12.548';-0.57;-0.14
'3:05:12.552';-0.465;-0.12
'3:05:12.556';-0.465;-0.135
'3:05:12.560';-0.525;-0.155
'3:05:12.564';-0.565;-0.12
'3:05:12.568';-0.47;-0.085
'3:05:12.572';-0.455;-0.115
'3:05:12.576';-0.54;-0.115
'3:05:12.580';-0.58;-0.1
'3:05:12.584';-0.5;-0.08
'3:05:12.588';-0.425;-0.08
'3:05:12.592';-0.525;-0.075
'3:05:12.596';-0.545;-0.09
'3:05:12.600';-0.48;-0.075
'3:05:12.604';-0.45;-0.095
'3:05:12.608';-0.5;-0.135
'3:05:12.612';-0.555;-0.145
'3:05:12.616';-0.505;-0.105
'3:05:12.620';-0.44;-0.1
'3:05:12.624';-0.48;-0.095
'3:05:12.628';-0.56;-0.125
'3:05:12.632';-0.52;-0.13
'3:05:12.636';-0.425;-0.145
'3:05:12.640';-0.47;-0.135
'3:05:12.644';-0.575;-0.15
'3:05:12.648';-0.535;-0.125
'3:05:12.652';-0.455;-0.125
'3:05:12.656';-0.485;-0.115
'3:05:12.660';-0.585;-0.135
'3:05:12.664';-0.55;-0.15
'3:05:12.668';-0.455;-0.17
'3:05:12.672';-0.45;-0.16
'3:05:12.676';-0.585;-0.15
'3:05:12.680';-0.59;-0.135
'3:05:12.684';-0.455;-0.13
'3:05:12.688';-0.475;-0.13
'3:05:12.692';-0.565;-0.14
'3:05:12.696';-0.6;-0.135
'3:05:12.700';-0.49;-0.11
'3:05:12.704';-0.505;-0.1
'3:05:12.708';-0.58;-0.12
'3:05:12.712';-0.575;-0.09
'3:05:12.716';-0.435;-0.105
'3:05:12.720';-0.385;-0.13
'3:05:12.724';-0.415;-0.15
'3:05:12.728';-0.435;-0.155
'3:05:12.732';-0.32;-0.14
'3:05:12.736';-0.24;-0.115
'3:05:12.740';-0.31;-0.115
'3:05:12.744';-0.335;-0.065
'3:05:12.748';-0.22;-0.035
'3:05:12.752';-0.12;0.01
'3:05:12.756';-0.23;0.015
'3:05:12.760';-0.3;0.07
'3:05:12.764';-0.255;0.09
'3:05:12.768';-0.235;0.065
'3:05:12.772';-0.36;0.03
'3:05:12.776';-0.475;0.025
'3:05:12.780';-0.38;-0.015
'3:05:12.784';-0.32;-0.065
'3:05:12.788';-0.365;-0.2
'3:05:12.792';-0.47;-0.225
'3:05:12.796';-0.455;-0.215
'3:05:12.800';-0.425;-0.17
'3:05:12.804';-0.5;-0.18
'3:05:12.808';-0.62;-0.185
'3:05:12.812';-0.59;-0.19
'3:05:12.816';-0.54;-0.175
'3:05:12.820';-0.62;-0.165
'3:05:12.824';-0.68;-0.19
'3:05:12.828';-0.64;-0.175
'3:05:12.832';-0.57;-0.24
'3:05:12.836';-0.6;-0.225
'3:05:12.840';-0.68;-0.23
'3:05:12.844';-0.655;-0.22
'3:05:12.848';-0.565;-0.255
'3:05:12.852';-0.565;-0.26
'3:05:12.856';-0.71;-0.23
'3:05:12.860';-0.72;-0.22
'3:05:12.864';-0.66;-0.205
'3:05:12.868';-0.625;-0.215
'3:05:12.872';-0.57;-0.205
'3:05:12.876';-0.32;-0.135
'3:05:12.880';0.09;0.02
'3:05:12.884';0.495;0.11
'3:05:12.888';0.805;0.22
'3:05:12.892';1.125;0.315
'3:05:12.896';1.25;0.475
'3:05:12.900';0.845;0.405
'3:05:12.904';0.125;-0.145
'3:05:12.908';-0.51;-0.885
'3:05:12.912';-0.83;-1.415
'3:05:12.916';-1.005;-1.83
'3:05:12.920';-1.055;-2.225
'3:05:12.924';-1.02;-2.475
'3:05:12.928';-0.78;-2.575
'3:05:12.932';-0.59;-2.41
'3:05:12.936';-0.64;-2.1
'3:05:12.940';-0.715;-1.525
'3:05:12.944';-0.605;-1.055
'3:05:12.948';-0.535;-0.655
'3:05:12.952';-0.615;-0.42
'3:05:12.956';-0.66;-0.28
'3:05:12.960';-0.585;-0.215
'3:05:12.964';-0.535;-0.115
'3:05:12.968';-0.625;-0.13
'3:05:12.972';-0.665;-0.13
'3:05:12.976';-0.575;-0.09
'3:05:12.980';-0.525;-0.04
'3:05:12.984';-0.6;-0.07
'3:05:12.988';-0.63;-0.055
'3:05:12.992';-0.565;-0.02
'3:05:12.996';-0.535;-0.03
'3:05:13.000';-0.555;-0.02
'3:05:13.004';-0.65;0
'3:05:13.008';-0.555;0.03
'3:05:13.012';-0.48;0.025
'3:05:13.016';-0.535;0.015
'3:05:13.020';-0.61;0.005
'3:05:13.024';-0.52;0.045
'3:05:13.028';-0.43;0.03
'3:05:13.032';-0.47;0.035
'3:05:13.036';-0.56;0.045
'3:05:13.040';-0.485;0.075
'3:05:13.044';-0.39;0.11
'3:05:13.048';-0.425;0.12
'3:05:13.052';-0.5;0.125
'3:05:13.056';-0.415;0.14
'3:05:13.060';-0.3;0.16
'3:05:13.064';-0.345;0.185
'3:05:13.068';-0.44;0.18
'3:05:13.072';-0.365;0.245
'3:05:13.076';-0.225;0.29
'3:05:13.080';-0.215;0.28
'3:05:13.084';-0.275;0.315
'3:05:13.088';-0.22;0.35
'3:05:13.092';-0.07;0.4
'3:05:13.096';-0.05;0.45
'3:05:13.100';-0.14;0.475
'3:05:13.104';-0.1;0.56
'3:05:13.108';0.03;0.595
'3:05:13.112';0.07;0.605
'3:05:13.116';-0.015;0.6
'3:05:13.120';0.005;0.645
'3:05:13.124';0.12;0.72
'3:05:13.128';0.135;0.71
'3:05:13.132';0.05;0.69
'3:05:13.136';0.04;0.75
'3:05:13.140';0.125;0.72
'3:05:13.144';0.125;0.73
'3:05:13.148';0;0.725
'3:05:13.152';-0.04;0.74
'3:05:13.156';-0.01;0.745
'3:05:13.160';-0.03;0.715
'3:05:13.164';-0.155;0.655
'3:05:13.168';-0.265;0.625
'3:05:13.172';-0.19;0.57
'3:05:13.176';-0.17;0.565
'3:05:13.180';-0.3;0.52
'3:05:13.184';-0.36;0.425
'3:05:13.188';-0.32;0.395
'3:05:13.192';-0.31;0.34
'3:05:13.196';-0.39;0.29
'3:05:13.200';-0.47;0.235
'3:05:13.204';-0.395;0.205
'3:05:13.208';-0.36;0.155
'3:05:13.212';-0.435;0.145
'3:05:13.216';-0.505;0.06
'3:05:13.220';-0.45;0.085
'3:05:13.224';-0.395;0.035
'3:05:13.228';-0.46;-0.025
'3:05:13.232';-0.55;-0.11
'3:05:13.236';-0.495;-0.06
'3:05:13.240';-0.41;-0.07
'3:05:13.244';-0.435;-0.08
'3:05:13.248';-0.545;-0.105
'3:05:13.252';-0.5;-0.09
'3:05:13.256';-0.425;-0.1
'3:05:13.260';-0.46;-0.075
'3:05:13.264';-0.55;-0.08
'3:05:13.268';-0.475;-0.085
'3:05:13.272';-0.39;-0.125
'3:05:13.276';-0.44;-0.12
'3:05:13.280';-0.53;-0.085
'3:05:13.284';-0.485;-0.09
'3:05:13.288';-0.39;-0.085
'3:05:13.292';-0.4;-0.095
'3:05:13.296';-0.49;-0.1
'3:05:13.300';-0.465;-0.05
'3:05:13.304';-0.355;-0.03
'3:05:13.308';-0.39;-0.05
'3:05:13.312';-0.5;-0.06
'3:05:13.316';-0.495;-0.04
'3:05:13.320';-0.415;-0.05
'3:05:13.324';-0.41;-0.055
'3:05:13.328';-0.515;-0.105
'3:05:13.332';-0.535;-0.1
'3:05:13.336';-0.445;-0.06
'3:05:13.340';-0.425;-0.105
'3:05:13.344';-0.5;-0.09
'3:05:13.348';-0.535;-0.04
'3:05:13.352';-0.45;-0.11
'3:05:13.356';-0.43;-0.075
'3:05:13.360';-0.515;-0.11
'3:05:13.364';-0.545;-0.1
'3:05:13.368';-0.48;-0.105
'3:05:13.372';-0.435;-0.1
'3:05:13.376';-0.52;-0.1
'3:05:13.380';-0.535;-0.135
'3:05:13.384';-0.45;-0.105
'3:05:13.388';-0.395;-0.12
'3:05:13.392';-0.525;-0.13
'3:05:13.396';-0.57;-0.125
'3:05:13.400';-0.47;-0.06
'3:05:13.404';-0.425;-0.075
'3:05:13.408';-0.5;-0.11
'3:05:13.412';-0.565;-0.125
'3:05:13.416';-0.465;-0.07
'3:05:13.420';-0.425;-0.09
'3:05:13.424';-0.505;-0.125
'3:05:13.428';-0.575;-0.145
'3:05:13.432';-0.49;-0.105
'3:05:13.436';-0.435;-0.125
'3:05:13.440';-0.515;-0.125
'3:05:13.444';-0.575;-0.14
'3:05:13.448';-0.445;-0.12
'3:05:13.452';-0.345;-0.08
'3:05:13.456';-0.335;-0.115
'3:05:13.460';-0.385;-0.105
'3:05:13.464';-0.27;-0.1
'3:05:13.468';-0.165;-0.095
'3:05:13.472';-0.255;-0.065
'3:05:13.476';-0.295;-0.03
'3:05:13.480';-0.2;0.05
'3:05:13.484';-0.115;0.05
'3:05:13.488';-0.175;0.055
'3:05:13.492';-0.27;0.06
'3:05:13.496';-0.27;0.12
'3:05:13.500';-0.235;0.115
'3:05:13.504';-0.295;0.055
'3:05:13.508';-0.43;0.005
'3:05:13.512';-0.395;-0.02
'3:05:13.516';-0.35;-0.045
'3:05:13.520';-0.38;-0.13
'3:05:13.524';-0.495;-0.195
'3:05:13.528';-0.5;-0.24
'3:05:13.532';-0.475;-0.215
'3:05:13.536';-0.5;-0.18
'3:05:13.540';-0.635;-0.225
'3:05:13.544';-0.645;-0.21
'3:05:13.548';-0.575;-0.18
'3:05:13.552';-0.565;-0.195
'3:05:13.556';-0.68;-0.21
'3:05:13.560';-0.695;-0.2
'3:05:13.564';-0.565;-0.19
'3:05:13.568';-0.535;-0.175
'3:05:13.572';-0.645;-0.22
'3:05:13.576';-0.66;-0.25
'3:05:13.580';-0.565;-0.24
'3:05:13.584';-0.525;-0.235
'3:05:13.588';-0.625;-0.225
'3:05:13.592';-0.72;-0.205
'3:05:13.596';-0.625;-0.16
'3:05:13.600';-0.51;-0.175
'3:05:13.604';-0.415;-0.165
'3:05:13.608';-0.205;-0.07
'3:05:13.612';0.21;0.11
'3:05:13.616';0.65;0.29
'3:05:13.620';0.945;0.295
'3:05:13.624';1.135;0.38
'3:05:13.628';1.1;0.535
'3:05:13.632';0.63;0.22
'3:05:13.636';-0.07;-0.45
'3:05:13.640';-0.65;-1.23
'3:05:13.644';-0.895;-1.71
'3:05:13.648';-0.905;-2.14
'3:05:13.652';-0.94;-2.485
'3:05:13.656';-0.93;-2.675
'3:05:13.660';-0.695;-2.645
'3:05:13.664';-0.475;-2.36
'3:05:13.668';-0.515;-1.835
'3:05:13.672';-0.63;-1.33
'3:05:13.676';-0.585;-0.845
'3:05:13.680';-0.455;-0.54
'3:05:13.684';-0.5;-0.33
'3:05:13.688';-0.585;-0.225
'3:05:13.692';-0.555;-0.13
'3:05:13.696';-0.475;-0.09
'3:05:13.700';-0.475;-0.065
'3:05:13.704';-0.59;-0.065
'3:05:13.708';-0.575;-0.045
'3:05:13.712';-0.46;-0.02
'3:05:13.716';-0.475;0
'3:05:13.720';-0.565;0
'3:05:13.724';-0.565;0.04
'3:05:13.728';-0.46;0.025
'3:05:13.732';-0.455;0.015
'3:05:13.736';-0.57;0.01
'3:05:13.740';-0.57;0.035
'3:05:13.744';-0.47;0.055
'3:05:13.748';-0.43;0.06
'3:05:13.752';-0.52;0.04
'3:05:13.756';-0.535;0.07
'3:05:13.760';-0.405;0.085
'3:05:13.764';-0.38;0.1
'3:05:13.768';-0.48;0.08
'3:05:13.772';-0.49;0.115
'3:05:13.776';-0.36;0.17
'3:05:13.780';-0.315;0.125
'3:05:13.784';-0.38;0.19
'3:05:13.788';-0.42;0.205
'3:05:13.792';-0.32;0.27
'3:05:13.796';-0.22;0.265
'3:05:13.800';-0.275;0.28
'3:05:13.804';-0.3;0.33
'3:05:13.808';-0.195;0.355
'3:05:13.812';-0.09;0.405
'3:05:13.816';-0.125;0.395
'3:05:13.820';-0.17;0.43
'3:05:13.824';-0.07;0.475
'3:05:13.828';0.02;0.515
'3:05:13.832';-0.005;0.54
'3:05:13.836';-0.04;0.575
'3:05:13.840';0.07;0.62
'3:05:13.844';0.17;0.655
'3:05:13.848';0.125;0.685
'3:05:13.852';0.075;0.7
'3:05:13.856';0.17;0.715
'3:05:13.860';0.265;0.815
'3:05:13.864';0.185;0.77
'3:05:13.868';0.105;0.78
'3:05:13.872';0.165;0.805
'3:05:13.876';0.2;0.8
'3:05:13.880';0.13;0.795
'3:05:13.884';0.02;0.78
'3:05:13.888';0.03;0.805
'3:05:13.892';0.065;0.795
'3:05:13.896';0.015;0.75
'3:05:13.900';-0.16;0.715
'3:05:13.904';-0.18;0.675
'3:05:13.908';-0.105;0.61
'3:05:13.912';-0.195;0.56
'3:05:13.916';-0.315;0.47
'3:05:13.920';-0.305;0.425
'3:05:13.924';-0.26;0.4
'3:05:13.928';-0.305;0.34
'3:05:13.932';-0.425;0.29
'3:05:13.936';-0.405;0.225
'3:05:13.940';-0.315;0.195
'3:05:13.944';-0.35;0.13
'3:05:13.948';-0.42;0.095
'3:05:13.952';-0.415;0.055
'3:05:13.956';-0.34;0.05
'3:05:13.960';-0.375;0.045
'3:05:13.964';-0.475;0
'3:05:13.968';-0.455;0
'3:05:13.972';-0.315;0.015
'3:05:13.976';-0.325;-0.015
'3:05:13.980';-0.43;-0.035
'3:05:13.984';-0.465;-0.03
'3:05:13.988';-0.365;-0.03
'3:05:13.992';-0.32;-0.005
'3:05:13.996';-0.425;-0.035
'3:05:14.000';-0.455;-0.035
'3:05:14.004';-0.355;-0.015
'3:05:14.008';-0.325;0
'3:05:14.012';-0.41;-0.025
'3:05:14.016';-0.475;-0.015
'3:05:14.020';-0.365;0.01
'3:05:14.024';-0.32;0.025
'3:05:14.028';-0.41;0
'3:05:14.032';-0.435;0.005
'3:05:14.036';-0.37;0.035
'3:05:14.040';-0.295;0.025
'3:05:14.044';-0.4;-0.01
'3:05:14.048';-0.44;-0.02
'3:05:14.052';-0.4;0.01
'3:05:14.056';-0.35;0
'3:05:14.060';-0.42;0
'3:05:14.064';-0.47;-0.005
'3:05:14.068';-0.38;0.035
'3:05:14.072';-0.3;-0.005
'3:05:14.076';-0.4;0
'3:05:14.080';-0.44;-0.04
'3:05:14.084';-0.36;-0.015
'3:05:14.088';-0.34;-0.01
'3:05:14.092';-0.38;-0.035
'3:05:14.096';-0.48;0
'3:05:14.100';-0.39;0.02
'3:05:14.104';-0.32;-0.025
'3:05:14.108';-0.37;-0.02
'3:05:14.112';-0.485;-0.015
'3:05:14.116';-0.44;-0.015
'3:05:14.120';-0.37;-0.04
'3:05:14.124';-0.405;-0.04
'3:05:14.128';-0.485;-0.06
'3:05:14.132';-0.465;-0.065
'3:05:14.136';-0.375;-0.1
'3:05:14.140';-0.365;-0.11
'3:05:14.144';-0.47;-0.13
'3:05:14.148';-0.445;-0.105
'3:05:14.152';-0.35;-0.04
'3:05:14.156';-0.375;-0.06
'3:05:14.160';-0.48;-0.045
'3:05:14.164';-0.47;-0.085
'3:05:14.168';-0.39;-0.05
'3:05:14.172';-0.36;-0.08
'3:05:14.176';-0.415;-0.09
'3:05:14.180';-0.41;-0.07
'3:05:14.184';-0.29;-0.055
'3:05:14.188';-0.255;-0.06
'3:05:14.192';-0.315;-0.05
'3:05:14.196';-0.295;-0.04
'3:05:14.200';-0.175;-0.04
'3:05:14.204';-0.09;-0.01
'3:05:14.208';-0.19;0
'3:05:14.212';-0.22;0.03
'3:05:14.216';-0.09;0.07
'3:05:14.220';-0.045;0.105
'3:05:14.224';-0.145;0.11
'3:05:14.228';-0.245;0.12
'3:05:14.232';-0.21;0.15
'3:05:14.236';-0.145;0.15
'3:05:14.240';-0.275;0.075
'3:05:14.244';-0.36;0.055
'3:05:14.248';-0.325;-0.015
'3:05:14.252';-0.255;-0.06
'3:05:14.256';-0.305;-0.135
'3:05:14.260';-0.405;-0.23
'3:05:14.264';-0.415;-0.19
'3:05:14.268';-0.365;-0.155
'3:05:14.272';-0.41;-0.16
'3:05:14.276';-0.545;-0.18
'3:05:14.280';-0.54;-0.175
'3:05:14.284';-0.49;-0.14
'3:05:14.288';-0.51;-0.145
'3:05:14.292';-0.615;-0.18
'3:05:14.296';-0.585;-0.14
'3:05:14.300';-0.485;-0.18
'3:05:14.304';-0.495;-0.18
'3:05:14.308';-0.61;-0.17
'3:05:14.312';-0.6;-0.215
'3:05:14.316';-0.475;-0.185
'3:05:14.320';-0.465;-0.185
'3:05:14.324';-0.575;-0.225
'3:05:14.328';-0.645;-0.22
'3:05:14.332';-0.57;-0.195
'3:05:14.336';-0.465;-0.21
'3:05:14.340';-0.365;-0.155
'3:05:14.344';-0.17;-0.04
'3:05:14.348';0.26;0.125
'3:05:14.352';0.67;0.23
'3:05:14.356';0.965;0.285
'3:05:14.360';1.13;0.385
'3:05:14.364';1.1;0.535
'3:05:14.368';0.625;0.295
'3:05:14.372';-0.04;-0.315
'3:05:14.376';-0.56;-1.035
'3:05:14.380';-0.795;-1.495
'3:05:14.384';-0.845;-1.945
'3:05:14.388';-0.865;-2.235
'3:05:14.392';-0.825;-2.5
'3:05:14.396';-0.6;-2.44
'3:05:14.400';-0.455;-2.235
'3:05:14.404';-0.53;-1.805
'3:05:14.408';-0.585;-1.29
'3:05:14.412';-0.515;-0.845
'3:05:14.416';-0.43;-0.565
'3:05:14.420';-0.515;-0.33
'3:05:14.424';-0.575;-0.21
'3:05:14.428';-0.525;-0.135
'3:05:14.432';-0.42;-0.065
'3:05:14.436';-0.49;-0.05
'3:05:14.440';-0.57;-0.06
'3:05:14.444';-0.545;-0.01
'3:05:14.448';-0.4;-0.02
'3:05:14.452';-0.47;-0.04
'3:05:14.456';-0.56;-0.01
'3:05:14.460';-0.53;0.015
'3:05:14.464';-0.445;0.035
'3:05:14.468';-0.485;0.07
'3:05:14.472';-0.585;0.03
'3:05:14.476';-0.545;0.025
'3:05:14.480';-0.435;0
'3:05:14.484';-0.425;0.03
'3:05:14.488';-0.52;0.03
'3:05:14.492';-0.535;0.05
'3:05:14.496';-0.41;0.1
'3:05:14.500';-0.39;0.11
'3:05:14.504';-0.48;0.115
'3:05:14.508';-0.45;0.135
'3:05:14.512';-0.365;0.135
'3:05:14.516';-0.36;0.16
'3:05:14.520';-0.425;0.175
'3:05:14.524';-0.41;0.18
'3:05:14.528';-0.32;0.21
'3:05:14.532';-0.28;0.23
'3:05:14.536';-0.325;0.255
'3:05:14.540';-0.295;0.225
'3:05:14.544';-0.17;0.3
'3:05:14.548';-0.12;0.3
'3:05:14.552';-0.16;0.365
'3:05:14.556';-0.18;0.385
'3:05:14.560';-0.075;0.465
'3:05:14.564';-0.005;0.52
'3:05:14.568';-0.06;0.545
'3:05:14.572';-0.055;0.565
'3:05:14.576';0.075;0.56
'3:05:14.580';0.16;0.6
'3:05:14.584';0.13;0.6
'3:05:14.588';0.065;0.675
'3:05:14.592';0.125;0.685
'3:05:14.596';0.21;0.735
'3:05:14.600';0.175;0.715
'3:05:14.604';0.075;0.735
'3:05:14.608';0.12;0.755
'3:05:14.612';0.195;0.77
'3:05:14.616';0.135;0.74
'3:05:14.620';0.005;0.735
'3:05:14.624';-0.005;0.755
'3:05:14.628';0.04;0.75
'3:05:14.632';-0.01;0.72
'3:05:14.636';-0.15;0.68
'3:05:14.640';-0.18;0.64
'3:05:14.644';-0.12;0.6
'3:05:14.648';-0.16;0.565
'3:05:14.652';-0.275;0.515
'3:05:14.656';-0.32;0.51
'3:05:14.660';-0.23;0.415
'3:05:14.664';-0.25;0.375
'3:05:14.668';-0.35;0.315
'3:05:14.672';-0.39;0.24
'3:05:14.676';-0.315;0.2
'3:05:14.680';-0.3;0.18
'3:05:14.684';-0.41;0.145
'3:05:14.688';-0.455;0.115
'3:05:14.692';-0.41;0.09
'3:05:14.696';-0.355;0.095
'3:05:14.700';-0.4;0.045
'3:05:14.704';-0.475;0.055
'3:05:14.708';-0.39;0.04
'3:05:14.712';-0.29;0.04
'3:05:14.716';-0.355;0.01
'3:05:14.720';-0.465;0.005
'3:05:14.724';-0.41;0.015
'3:05:14.728';-0.355;0.07
'3:05:14.732';-0.36;0.075
'3:05:14.736';-0.46;0.02
'3:05:14.740';-0.44;0.005
'3:05:14.744';-0.35;0.005
'3:05:14.748';-0.37;0
'3:05:14.752';-0.48;0.005
'3:05:14.756';-0.49;0.005
'3:05:14.760';-0.4;0.005
'3:05:14.764';-0.365;0.04
'3:05:14.768';-0.455;0.01
'3:05:14.772';-0.45;0.02
'3:05:14.776';-0.33;0.025
'3:05:14.780';-0.325;0.045
'3:05:14.784';-0.445;0.06
'3:05:14.788';-0.46;0.04
'3:05:14.792';-0.405;0.065
'3:05:14.796';-0.375;0.08
'3:05:14.800';-0.45;0.065
'3:05:14.804';-0.465;0.075
'3:05:14.808';-0.375;0.075
'3:05:14.812';-0.35;0.045
'3:05:14.816';-0.435;0.025
'3:05:14.820';-0.485;0.015
'3:05:14.824';-0.405;0.025
'3:05:14.828';-0.375;0.03
'3:05:14.832';-0.4;-0.01
'3:05:14.836';-0.505;-0.025
'3:05:14.840';-0.42;-0.005
'3:05:14.844';-0.36;0.035
'3:05:14.848';-0.415;0.01
'3:05:14.852';-0.49;0
'3:05:14.856';-0.445;0.005
'3:05:14.860';-0.34;0
'3:05:14.864';-0.39;-0.035
'3:05:14.868';-0.49;-0.02
'3:05:14.872';-0.445;0
'3:05:14.876';-0.315;0.01
'3:05:14.880';-0.35;-0.01
'3:05:14.884';-0.465;-0.04
'3:05:14.888';-0.435;-0.04
'3:05:14.892';-0.355;0.02
'3:05:14.896';-0.37;-0.025
'3:05:14.900';-0.475;-0.005
'3:05:14.904';-0.455;-0.025
'3:05:14.908';-0.345;-0.015
'3:05:14.912';-0.35;-0.01
'3:05:14.916';-0.44;0.005
'3:05:14.920';-0.47;0.005
'3:05:14.924';-0.39;-0.02
'3:05:14.928';-0.305;-0.02
'3:05:14.932';-0.365;-0.03
'3:05:14.936';-0.315;-0.04
'3:05:14.940';-0.22;0.01
'3:05:14.944';-0.16;-0.015
'3:05:14.948';-0.25;0.02
'3:05:14.952';-0.265;0.02
'3:05:14.956';-0.14;0.07
'3:05:14.960';-0.1;0.09
'3:05:14.964';-0.185;0.12
'3:05:14.968';-0.235;0.175
'3:05:14.972';-0.17;0.195
'3:05:14.976';-0.095;0.18
'3:05:14.980';-0.205;0.105
'3:05:14.984';-0.3;0.07
'3:05:14.988';-0.245;0.07
'3:05:14.992';-0.22;0.055
'3:05:14.996';-0.27;-0.015
'3:05:15.000';-0.355;-0.085
'3:05:15.004';-0.375;-0.09
'3:05:15.008';-0.3;-0.06
'3:05:15.012';-0.4;-0.085
'3:05:15.016';-0.515;-0.085
'3:05:15.020';-0.535;-0.075
'3:05:15.024';-0.48;-0.07
'3:05:15.028';-0.5;-0.115
'3:05:15.032';-0.595;-0.045
'3:05:15.036';-0.555;-0.07
'3:05:15.040';-0.45;-0.045
'3:05:15.044';-0.49;-0.075
'3:05:15.048';-0.565;-0.125
'3:05:15.052';-0.595;-0.16
'3:05:15.056';-0.525;-0.16
'3:05:15.060';-0.545;-0.135
'3:05:15.064';-0.615;-0.185
'3:05:15.068';-0.595;-0.145
'3:05:15.072';-0.505;-0.11
'3:05:15.076';-0.495;-0.135
'3:05:15.080';-0.53;-0.115
'3:05:15.084';-0.385;-0.07
'3:05:15.088';-0.045;-0.005
'3:05:15.092';0.325;0.15
'3:05:15.096';0.615;0.27
'3:05:15.100';1;0.325
'3:05:15.104';1.31;0.415
'3:05:15.108';1.235;0.575
'3:05:15.112';0.675;0.675
'3:05:15.116';0.025;0.37
'3:05:15.120';-0.435;-0.29
'3:05:15.124';-0.705;-0.905
'3:05:15.128';-0.915;-1.31
'3:05:15.132';-0.98;-1.64
'3:05:15.136';-0.815;-1.905
'3:05:15.140';-0.595;-2.065
'3:05:15.144';-0.52;-2.105
'3:05:15.148';-0.545;-1.89
'3:05:15.152';-0.49;-1.545
'3:05:15.156';-0.41;-1.13
'3:05:15.160';-0.435;-0.77
'3:05:15.164';-0.58;-0.5
'3:05:15.168';-0.58;-0.26
'3:05:15.172';-0.49;-0.15
'3:05:15.176';-0.48;-0.12
'3:05:15.180';-0.53;-0.06
'3:05:15.184';-0.505;-0.05
'3:05:15.188';-0.42;0.015
'3:05:15.192';-0.4;-0.025
'3:05:15.196';-0.495;-0.03
'3:05:15.200';-0.47;0
'3:05:15.204';-0.39;0.025
'3:05:15.208';-0.385;0.025
'3:05:15.212';-0.46;-0.01
'3:05:15.216';-0.505;-0.01
'3:05:15.220';-0.42;-0.005
'3:05:15.224';-0.38;0
'3:05:15.228';-0.465;0.01
'3:05:15.232';-0.505;0.005
'3:05:15.236';-0.42;0.03
'3:05:15.240';-0.335;0
'3:05:15.244';-0.405;-0.02
'3:05:15.248';-0.45;0.01
'3:05:15.252';-0.37;0.07
'3:05:15.256';-0.305;0.065
'3:05:15.260';-0.365;0.035
'3:05:15.264';-0.46;0.02
'3:05:15.268';-0.36;0.075
'3:05:15.272';-0.215;0.125
'3:05:15.276';-0.23;0.14
'3:05:15.280';-0.29;0.095
'3:05:15.284';-0.235;0.135
'3:05:15.288';-0.1;0.175
'3:05:15.292';-0.155;0.16
'3:05:15.296';-0.225;0.195
'3:05:15.300';-0.205;0.25
'3:05:15.304';-0.04;0.31
'3:05:15.308';-0.02;0.33
'3:05:15.312';-0.07;0.3
'3:05:15.316';-0.05;0.365
'3:05:15.320';0.095;0.39
'3:05:15.324';0.13;0.43
'3:05:15.328';0.075;0.475
'3:05:15.332';0.045;0.51
'3:05:15.336';0.175;0.515
'3:05:15.340';0.18;0.52
'3:05:15.344';0.11;0.52
'3:05:15.348';0.06;0.525
'3:05:15.352';0.165;0.56
'3:05:15.356';0.17;0.535
'3:05:15.360';0.045;0.55
'3:05:15.364';0;0.57
'3:05:15.368';0.055;0.58
'3:05:15.372';0.05;0.565
'3:05:15.376';-0.02;0.515
'3:05:15.380';-0.155;0.495
'3:05:15.384';-0.125;0.475
'3:05:15.388';-0.105;0.45
'3:05:15.392';-0.21;0.405
'3:05:15.396';-0.31;0.355
'3:05:15.400';-0.255;0.345
'3:05:15.404';-0.23;0.295
'3:05:15.408';-0.32;0.205
'3:05:15.412';-0.44;0.115
'3:05:15.416';-0.43;0.1
'3:05:15.420';-0.355;0.075
'3:05:15.424';-0.39;0.03
'3:05:15.428';-0.46;0.02
'3:05:15.432';-0.445;0
'3:05:15.436';-0.37;-0.045
'3:05:15.440';-0.45;-0.055
'3:05:15.444';-0.545;-0.065
'3:05:15.448';-0.515;-0.07
'3:05:15.452';-0.42;-0.065
'3:05:15.456';-0.42;-0.16
'3:05:15.460';-0.5;-0.165
'3:05:15.464';-0.455;-0.16
'3:05:15.468';-0.39;-0.135
'3:05:15.472';-0.43;-0.14
'3:05:15.476';-0.48;-0.14
'3:05:15.480';-0.445;-0.11
'3:05:15.484';-0.365;-0.07
'3:05:15.488';-0.38;-0.13
'3:05:15.492';-0.46;-0.15
'3:05:15.496';-0.43;-0.12
'3:05:15.500';-0.365;-0.115
'3:05:15.504';-0.395;-0.09
'3:05:15.508';-0.485;-0.1
'3:05:15.512';-0.475;-0.115
'3:05:15.516';-0.39;-0.115
'3:05:15.520';-0.375;-0.105
'3:05:15.524';-0.47;-0.135
'3:05:15.528';-0.47;-0.125
'3:05:15.532';-0.37;-0.12
'3:05:15.536';-0.355;-0.105
'3:05:15.540';-0.46;-0.16
'3:05:15.544';-0.475;-0.13
'3:05:15.548';-0.385;-0.135
'3:05:15.552';-0.345;-0.1
'3:05:15.556';-0.43;-0.12
'3:05:15.560';-0.48;-0.145
'3:05:15.564';-0.405;-0.11
'3:05:15.568';-0.36;-0.105
'3:05:15.572';-0.445;-0.1
'3:05:15.576';-0.495;-0.13
'3:05:15.580';-0.415;-0.115
'3:05:15.584';-0.335;-0.1
'3:05:15.588';-0.425;-0.145
'3:05:15.592';-0.46;-0.155
'3:05:15.596';-0.4;-0.11
'3:05:15.600';-0.335;-0.135
'3:05:15.604';-0.44;-0.115
'3:05:15.608';-0.5;-0.15
'3:05:15.612';-0.445;-0.155
'3:05:15.616';-0.4;-0.115
'3:05:15.620';-0.455;-0.115
'3:05:15.624';-0.575;-0.15
'3:05:15.628';-0.505;-0.145
'3:05:15.632';-0.43;-0.125
'3:05:15.636';-0.46;-0.14
'3:05:15.640';-0.51;-0.155
'3:05:15.644';-0.51;-0.15
'3:05:15.648';-0.425;-0.15
'3:05:15.652';-0.465;-0.135
'3:05:15.656';-0.54;-0.165
'3:05:15.660';-0.525;-0.18
'3:05:15.664';-0.45;-0.165
'3:05:15.668';-0.435;-0.185
'3:05:15.672';-0.5;-0.155
'3:05:15.676';-0.445;-0.16
'3:05:15.680';-0.355;-0.15
'3:05:15.684';-0.33;-0.13
'3:05:15.688';-0.355;-0.12
'3:05:15.692';-0.345;-0.14
'3:05:15.696';-0.235;-0.115
'3:05:15.700';-0.215;-0.1
'3:05:15.704';-0.26;-0.09
'3:05:15.708';-0.26;-0.08
'3:05:15.712';-0.135;-0.015
'3:05:15.716';-0.125;0.005
'3:05:15.720';-0.245;0.045
'3:05:15.724';-0.295;0.06
'3:05:15.728';-0.255;0.09
'3:05:15.732';-0.27;0.04
'3:05:15.736';-0.385;-0.015
'3:05:15.740';-0.455;-0.08
'3:05:15.744';-0.36;-0.125
'3:05:15.748';-0.305;-0.2
'3:05:15.752';-0.375;-0.25
'3:05:15.756';-0.48;-0.285
'3:05:15.760';-0.475;-0.225
'3:05:15.764';-0.465;-0.22
'3:05:15.768';-0.565;-0.25
'3:05:15.772';-0.625;-0.24
'3:05:15.776';-0.555;-0.23
'3:05:15.780';-0.51;-0.215
'3:05:15.784';-0.55;-0.215
'3:05:15.788';-0.615;-0.23
'3:05:15.792';-0.57;-0.215
'3:05:15.796';-0.47;-0.255
'3:05:15.800';-0.535;-0.235
'3:05:15.804';-0.605;-0.27
'3:05:15.808';-0.59;-0.24
'3:05:15.812';-0.505;-0.275
'3:05:15.816';-0.555;-0.255
'3:05:15.820';-0.655;-0.275
'3:05:15.824';-0.645;-0.255
'3:05:15.828';-0.52;-0.21
'3:05:15.832';-0.41;-0.205
'3:05:15.836';-0.255;-0.16
'3:05:15.840';0.09;-0.05
'3:05:15.844';0.56;0.1
'3:05:15.848';0.95;0.18
'3:05:15.852';1.135;0.24
'3:05:15.856';1.15;0.41
'3:05:15.860';0.8;0.49
'3:05:15.864';0.16;0.095
'3:05:15.868';-0.45;-0.615
'3:05:15.872';-0.835;-1.205
'3:05:15.876';-0.915;-1.63
'3:05:15.880';-0.895;-1.955
'3:05:15.884';-0.86;-2.175
'3:05:15.888';-0.755;-2.31
'3:05:15.892';-0.535;-2.32
'3:05:15.896';-0.44;-2.05
'3:05:15.900';-0.53;-1.63
'3:05:15.904';-0.57;-1.155
'3:05:15.908';-0.495;-0.75
'3:05:15.912';-0.475;-0.46
'3:05:15.916';-0.545;-0.315
'3:05:15.920';-0.585;-0.21
'3:05:15.924';-0.545;-0.16
'3:05:15.928';-0.46;-0.135
'3:05:15.932';-0.535;-0.145
'3:05:15.936';-0.585;-0.145
'3:05:15.940';-0.545;-0.105
'3:05:15.944';-0.445;-0.085
'3:05:15.948';-0.48;-0.065
'3:05:15.952';-0.575;-0.095
'3:05:15.956';-0.535;-0.03
'3:05:15.960';-0.43;0
'3:05:15.964';-0.48;0
'3:05:15.968';-0.55;-0.06
'3:05:15.972';-0.51;-0.055
'3:05:15.976';-0.43;-0.025
'3:05:15.980';-0.44;-0.015
'3:05:15.984';-0.52;-0.035
'3:05:15.988';-0.48;0.035
'3:05:15.992';-0.405;0.015
'3:05:15.996';-0.4;0.045
'3:05:16.000';-0.475;0.03
'3:05:16.004';-0.455;0.085
'3:05:16.008';-0.35;0.08
'3:05:16.012';-0.315;0.105
'3:05:16.016';-0.43;0.085
'3:05:16.020';-0.425;0.145
'3:05:16.024';-0.28;0.145
'3:05:16.028';-0.255;0.155
'3:05:16.032';-0.34;0.155
'3:05:16.036';-0.295;0.22
'3:05:16.040';-0.2;0.295
'3:05:16.044';-0.13;0.31
'3:05:16.048';-0.185;0.305
'3:05:16.052';-0.18;0.345
'3:05:16.056';-0.09;0.365
'3:05:16.060';-0.025;0.415
'3:05:16.064';-0.055;0.455
'3:05:16.068';-0.07;0.48
'3:05:16.072';0.04;0.52
'3:05:16.076';0.1;0.57
'3:05:16.080';0.035;0.61
'3:05:16.084';0.01;0.635
'3:05:16.088';0.125;0.645
'3:05:16.092';0.185;0.685
'3:05:16.096';0.105;0.655
'3:05:16.100';0.05;0.66
'3:05:16.104';0.125;0.68
'3:05:16.108';0.13;0.7
'3:05:16.112';0.035;0.63
'3:05:16.116';-0.04;0.65
'3:05:16.120';-0.045;0.66
'3:05:16.124';-0.04;0.645
'3:05:16.128';-0.16;0.625
'3:05:16.132';-0.25;0.565
'3:05:16.136';-0.235;0.495
'3:05:16.140';-0.205;0.46
'3:05:16.144';-0.285;0.375
'3:05:16.148';-0.37;0.34
'3:05:16.152';-0.385;0.325
'3:05:16.156';-0.32;0.275
'3:05:16.160';-0.39;0.205
'3:05:16.164';-0.5;0.15
'3:05:16.168';-0.465;0.09
'3:05:16.172';-0.355;0.045
'3:05:16.176';-0.395;0.025
'3:05:16.180';-0.52;0.005
'3:05:16.184';-0.485;0
'3:05:16.188';-0.37;-0.04
'3:05:16.192';-0.445;-0.045
'3:05:16.196';-0.5;-0.08
'3:05:16.200';-0.485;-0.04
'3:05:16.204';-0.41;-0.03
'3:05:16.208';-0.44;-0.065
'3:05:16.212';-0.52;-0.09
'3:05:16.216';-0.485;-0.065
'3:05:16.220';-0.4;-0.08
'3:05:16.224';-0.45;-0.105
'3:05:16.228';-0.555;-0.125
'3:05:16.232';-0.525;-0.12
'3:05:16.236';-0.415;-0.095
'3:05:16.240';-0.44;-0.14
'3:05:16.244';-0.545;-0.1
'3:05:16.248';-0.51;-0.105
'3:05:16.252';-0.41;-0.08
'3:05:16.256';-0.4;-0.075
'3:05:16.260';-0.525;-0.09
'3:05:16.264';-0.53;-0.085
'3:05:16.268';-0.395;-0.035
'3:05:16.272';-0.38;-0.06
'3:05:16.276';-0.475;-0.085
'3:05:16.280';-0.51;-0.08
'3:05:16.284';-0.42;-0.07
'3:05:16.288';-0.4;-0.095
'3:05:16.292';-0.48;-0.11
'3:05:16.296';-0.525;-0.095
'3:05:16.300';-0.425;-0.08
'3:05:16.304';-0.425;-0.115
'3:05:16.308';-0.49;-0.105
'3:05:16.312';-0.54;-0.1
'3:05:16.316';-0.5;-0.085
'3:05:16.320';-0.41;-0.095
'3:05:16.324';-0.505;-0.11
'3:05:16.328';-0.555;-0.09
'3:05:16.332';-0.48;-0.105
'3:05:16.336';-0.435;-0.115
'3:05:16.340';-0.51;-0.13
'3:05:16.344';-0.575;-0.145
'3:05:16.348';-0.52;-0.125
'3:05:16.352';-0.46;-0.1
'3:05:16.356';-0.51;-0.135
'3:05:16.360';-0.585;-0.14
'3:05:16.364';-0.535;-0.105
'3:05:16.368';-0.42;-0.15
'3:05:16.372';-0.46;-0.135
'3:05:16.376';-0.55;-0.15
'3:05:16.380';-0.515;-0.145
'3:05:16.384';-0.445;-0.12
'3:05:16.388';-0.485;-0.12
'3:05:16.392';-0.565;-0.115
'3:05:16.396';-0.535;-0.065
'3:05:16.400';-0.47;-0.105
'3:05:16.404';-0.48;-0.155
'3:05:16.408';-0.51;-0.185
'3:05:16.412';-0.39;-0.15
'3:05:16.416';-0.31;-0.155
'3:05:16.420';-0.28;-0.14
'3:05:16.424';-0.335;-0.11
'3:05:16.428';-0.315;-0.085
'3:05:16.432';-0.215;-0.045
'3:05:16.436';-0.19;-0.015
'3:05:16.440';-0.24;-0.005
'3:05:16.444';-0.255;0.02
'3:05:16.448';-0.17;0.08
'3:05:16.452';-0.18;0.125
'3:05:16.456';-0.31;0.115
'3:05:16.460';-0.42;0.085
'3:05:16.464';-0.36;0.06
'3:05:16.468';-0.34;0.055
'3:05:16.472';-0.435;0
'3:05:16.476';-0.465;-0.075
'3:05:16.480';-0.4;-0.145
'3:05:16.484';-0.4;-0.205
'3:05:16.488';-0.55;-0.185
'3:05:16.492';-0.63;-0.175
'3:05:16.496';-0.59;-0.145
'3:05:16.500';-0.57;-0.16
'3:05:16.504';-0.64;-0.18
'3:05:16.508';-0.69;-0.255
'3:05:16.512';-0.625;-0.225
'3:05:16.516';-0.585;-0.225
'3:05:16.520';-0.625;-0.19
'3:05:16.524';-0.7;-0.205
'3:05:16.528';-0.66;-0.24
'3:05:16.532';-0.585;-0.225
'3:05:16.536';-0.635;-0.25
'3:05:16.540';-0.705;-0.25
'3:05:16.544';-0.655;-0.26
'3:05:16.548';-0.6;-0.23
'3:05:16.552';-0.7;-0.24
'3:05:16.556';-0.75;-0.26
'3:05:16.560';-0.645;-0.22
'3:05:16.564';-0.345;-0.16
'3:05:16.568';-0.095;-0.1
'3:05:16.572';0.14;0.04
'3:05:16.576';0.53;0.205
'3:05:16.580';0.955;0.26
'3:05:16.584';1.18;0.38
'3:05:16.588';1.015;0.47
'3:05:16.592';0.495;0.26
'3:05:16.596';-0.025;-0.34
'3:05:16.600';-0.525;-1.055
'3:05:16.604';-0.94;-1.62
'3:05:16.608';-1.045;-2.07
'3:05:16.612';-0.93;-2.43
'3:05:16.616';-0.79;-2.61
'3:05:16.620';-0.745;-2.625
'3:05:16.624';-0.73;-2.34
'3:05:16.628';-0.575;-1.805
'3:05:16.632';-0.56;-1.26
'3:05:16.636';-0.64;-0.815
'3:05:16.640';-0.67;-0.535
'3:05:16.644';-0.555;-0.32
'3:05:16.648';-0.53;-0.23
'3:05:16.652';-0.605;-0.135
'3:05:16.656';-0.675;-0.08
'3:05:16.660';-0.6;-0.05
'3:05:16.664';-0.525;-0.045
'3:05:16.668';-0.605;-0.05
'3:05:16.672';-0.675;-0.065
'3:05:16.676';-0.57;0.015
'3:05:16.680';-0.52;0.02
'3:05:16.684';-0.58;0.035
'3:05:16.688';-0.65;-0.015
'3:05:16.692';-0.6;0.02
'3:05:16.696';-0.535;0.04
'3:05:16.700';-0.58;0.01
'3:05:16.704';-0.655;0.035
'3:05:16.708';-0.57;0.065
'3:05:16.712';-0.49;0.095
'3:05:16.716';-0.545;0.105
'3:05:16.720';-0.58;0.095
'3:05:16.724';-0.53;0.13
'3:05:16.728';-0.455;0.145
'3:05:16.732';-0.49;0.13
'3:05:16.736';-0.505;0.11
'3:05:16.740';-0.48;0.135
'3:05:16.744';-0.36;0.175
'3:05:16.748';-0.395;0.215
'3:05:16.752';-0.455;0.22
'3:05:16.756';-0.42;0.25
'3:05:16.760';-0.305;0.325
'3:05:16.764';-0.3;0.335
'3:05:16.768';-0.335;0.35
'3:05:16.772';-0.295;0.36
'3:05:16.776';-0.17;0.425
'3:05:16.780';-0.125;0.46
'3:05:16.784';-0.185;0.505
'3:05:16.788';-0.145;0.575
'3:05:16.792';-0.01;0.61
'3:05:16.796';0.025;0.635
'3:05:16.800';-0.04;0.69
'3:05:16.804';-0.04;0.725
'3:05:16.808';0.075;0.795
'3:05:16.812';0.13;0.79
'3:05:16.816';0.075;0.81
'3:05:16.820';0.01;0.815
'3:05:16.824';0.1;0.85
'3:05:16.828';0.155;0.86
'3:05:16.832';0.06;0.865
'3:05:16.836';-0.005;0.875
'3:05:16.840';0.04;0.855
'3:05:16.844';0.07;0.865
'3:05:16.848';-0.03;0.84
'3:05:16.852';-0.14;0.835
'3:05:16.856';-0.13;0.805
'3:05:16.860';-0.135;0.77
'3:05:16.864';-0.21;0.745
'3:05:16.868';-0.295;0.705
'3:05:16.872';-0.255;0.685
'3:05:16.876';-0.235;0.605
'3:05:16.880';-0.33;0.53
'3:05:16.884';-0.4;0.485
'3:05:16.888';-0.4;0.425
'3:05:16.892';-0.35;0.37
'3:05:16.896';-0.41;0.34
'3:05:16.900';-0.505;0.29
'3:05:16.904';-0.46;0.28
'3:05:16.908';-0.39;0.22
'3:05:16.912';-0.405;0.205
'3:05:16.916';-0.505;0.14
'3:05:16.920';-0.495;0.115
'3:05:16.924';-0.395;0.07
'3:05:16.928';-0.425;0.07
'3:05:16.932';-0.505;0.05
'3:05:16.936';-0.49;0.045
'3:05:16.940';-0.42;0.05
'3:05:16.944';-0.425;0.05
'3:05:16.948';-0.51;0.025
'3:05:16.952';-0.5;0.025
'3:05:16.956';-0.42;0.06
'3:05:16.960';-0.375;0.06
'3:05:16.964';-0.485;0
'3:05:16.968';-0.535;0.01
'3:05:16.972';-0.43;0.055
'3:05:16.976';-0.395;0.1
'3:05:16.980';-0.475;0.075
'3:05:16.984';-0.495;0.075
'3:05:16.988';-0.42;0.07
'3:05:16.992';-0.385;0.07
'3:05:16.996';-0.46;0.08
'3:05:17.000';-0.51;0.095
'3:05:17.004';-0.435;0.155
'3:05:17.008';-0.38;0.115
'3:05:17.012';-0.475;0.1
'3:05:17.016';-0.52;0.07
'3:05:17.020';-0.46;0.1
'3:05:17.024';-0.39;0.075
'3:05:17.028';-0.47;0.075
'3:05:17.032';-0.565;0.065
'3:05:17.036';-0.5;0.06
'3:05:17.040';-0.425;0.08
'3:05:17.044';-0.49;0.075
'3:05:17.048';-0.525;0.07
'3:05:17.052';-0.505;0.025
'3:05:17.056';-0.42;0.04
'3:05:17.060';-0.47;0.04
'3:05:17.064';-0.57;0.01
'3:05:17.068';-0.505;0.01
'3:05:17.072';-0.41;0.065
'3:05:17.076';-0.44;0.015
'3:05:17.080';-0.55;0.025
'3:05:17.084';-0.53;0.04
'3:05:17.088';-0.415;0.065
'3:05:17.092';-0.415;0.035
'3:05:17.096';-0.52;0.05
'3:05:17.100';-0.51;0.03
'3:05:17.104';-0.42;0.005
'3:05:17.108';-0.4;0.03
'3:05:17.112';-0.515;0.025
'3:05:17.116';-0.525;0.04
'3:05:17.120';-0.435;0.025
'3:05:17.124';-0.41;0.005
'3:05:17.128';-0.485;-0.01
'3:05:17.132';-0.535;-0.01
'3:05:17.136';-0.425;0.04
'3:05:17.140';-0.35;0.015
'3:05:17.144';-0.44;0.01
'3:05:17.148';-0.44;-0.015
'3:05:17.152';-0.325;0.02
'3:05:17.156';-0.245;0.035
'3:05:17.160';-0.265;0.035
'3:05:17.164';-0.295;0.035
'3:05:17.168';-0.195;0.075
'3:05:17.172';-0.115;0.125
'3:05:17.176';-0.175;0.18
'3:05:17.180';-0.225;0.175
'3:05:17.184';-0.155;0.235
'3:05:17.188';-0.11;0.245
'3:05:17.192';-0.245;0.25
'3:05:17.196';-0.35;0.23
'3:05:17.200';-0.34;0.205
'3:05:17.204';-0.29;0.195
'3:05:17.208';-0.365;0.125
'3:05:17.212';-0.44;0.025
'3:05:17.216';-0.395;-0.045
'3:05:17.220';-0.365;-0.03
'3:05:17.224';-0.395;-0.05
'3:05:17.228';-0.545;-0.085
'3:05:17.232';-0.57;-0.075
'3:05:17.236';-0.51;-0.05
'3:05:17.240';-0.535;-0.12
'3:05:17.244';-0.635;-0.08
'3:05:17.248';-0.69;-0.055
'3:05:17.252';-0.62;-0.03
'3:05:17.256';-0.585;-0.02
'3:05:17.260';-0.68;-0.08
'3:05:17.264';-0.68;-0.06
'3:05:17.268';-0.59;-0.04
'3:05:17.272';-0.55;-0.055
'3:05:17.276';-0.635;-0.08
'3:05:17.280';-0.635;-0.06
'3:05:17.284';-0.565;-0.11
'3:05:17.288';-0.56;-0.13
'3:05:17.292';-0.68;-0.135
'3:05:17.296';-0.665;-0.08
'3:05:17.300';-0.45;-0.05
'3:05:17.304';-0.155;-0.03
'3:05:17.308';0.07;0.09
'3:05:17.312';0.36;0.28
'3:05:17.316';0.825;0.385
'3:05:17.320';1.16;0.425
'3:05:17.324';1.075;0.545
'3:05:17.328';0.66;0.54
'3:05:17.332';0.13;0.055
'3:05:17.336';-0.34;-0.64
'3:05:17.340';-0.79;-1.215
'3:05:17.344';-1.045;-1.685
'3:05:17.348';-1;-2.055
'3:05:17.352';-0.81;-2.34
'3:05:17.356';-0.725;-2.44
'3:05:17.360';-0.705;-2.38
'3:05:17.364';-0.64;-2.03
'3:05:17.368';-0.545;-1.48
'3:05:17.372';-0.56;-0.98
'3:05:17.376';-0.615;-0.605
'3:05:17.380';-0.605;-0.32
'3:05:17.384';-0.5;-0.145
'3:05:17.388';-0.515;-0.09
'3:05:17.392';-0.61;-0.055
'3:05:17.396';-0.6;-0.02
'3:05:17.400';-0.515;0
'3:05:17.404';-0.485;0.005
'3:05:17.408';-0.615;0.04
'3:05:17.412';-0.605;0.06
'3:05:17.416';-0.51;0.07
'3:05:17.420';-0.51;0.08
'3:05:17.424';-0.605;0.07
'3:05:17.428';-0.63;0.065
'3:05:17.432';-0.52;0.125
'3:05:17.436';-0.51;0.115
'3:05:17.440';-0.605;0.105
'3:05:17.444';-0.64;0.1
'3:05:17.448';-0.56;0.115
'3:05:17.452';-0.47;0.125
'3:05:17.456';-0.55;0.095
'3:05:17.460';-0.57;0.105
'3:05:17.464';-0.525;0.125
'3:05:17.468';-0.43;0.12
'3:05:17.472';-0.505;0.14
'3:05:17.476';-0.535;0.175
'3:05:17.480';-0.44;0.22
'3:05:17.484';-0.335;0.235
'3:05:17.488';-0.365;0.275
'3:05:17.492';-0.44;0.255
'3:05:17.496';-0.325;0.26
'3:05:17.500';-0.255;0.345
'3:05:17.504';-0.255;0.345
'3:05:17.508';-0.32;0.365
'3:05:17.512';-0.23;0.4
'3:05:17.516';-0.115;0.465
'3:05:17.520';-0.12;0.45
'3:05:17.524';-0.21;0.47
'3:05:17.528';-0.1;0.52
'3:05:17.532';-0.01;0.59
'3:05:17.536';-0.01;0.6
'3:05:17.540';-0.075;0.615
'3:05:17.544';-0.035;0.675
'3:05:17.548';0.07;0.705
'3:05:17.552';0.07;0.71
'3:05:17.556';0.02;0.69
'3:05:17.560';0.035;0.77
'3:05:17.564';0.165;0.76
'3:05:17.568';0.155;0.755
'3:05:17.572';0.035;0.775
'3:05:17.576';0.015;0.815
'3:05:17.580';0.065;0.795
'3:05:17.584';0.05;0.785
'3:05:17.588';-0.1;0.75
'3:05:17.592';-0.155;0.755
'3:05:17.596';-0.1;0.715
'3:05:17.600';-0.13;0.685
'3:05:17.604';-0.235;0.635
'3:05:17.608';-0.295;0.605
'3:05:17.612';-0.27;0.57
'3:05:17.616';-0.265;0.56
'3:05:17.620';-0.395;0.48
'3:05:17.624';-0.48;0.43
'3:05:17.628';-0.435;0.35
'3:05:17.632';-0.37;0.315
'3:05:17.636';-0.45;0.24
'3:05:17.640';-0.515;0.16
'3:05:17.644';-0.46;0.15
'3:05:17.648';-0.42;0.115
'3:05:17.652';-0.495;0.095
'3:05:17.656';-0.575;0.07
'3:05:17.660';-0.48;0.06
'3:05:17.664';-0.45;0.045
'3:05:17.668';-0.475;0.05
'3:05:17.672';-0.555;0.015
'3:05:17.676';-0.495;0.02
'3:05:17.680';-0.39;-0.015
'3:05:17.684';-0.41;0.02
'3:05:17.688';-0.535;0.025
'3:05:17.692';-0.515;0.01
'3:05:17.696';-0.415;-0.015
'3:05:17.700';-0.46;-0.02
'3:05:17.704';-0.53;0.01
'3:05:17.708';-0.53;0.025
'3:05:17.712';-0.455;0.055
'3:05:17.716';-0.445;0.015
'3:05:17.720';-0.54;0.01
'3:05:17.724';-0.57;0
'3:05:17.728';-0.475;0.055
'3:05:17.732';-0.44;0.025
'3:05:17.736';-0.55;0.015
'3:05:17.740';-0.56;0.015
'3:05:17.744';-0.435;0.035
'3:05:17.748';-0.405;0.035
'3:05:17.752';-0.505;0.04
'3:05:17.756';-0.55;0.01
'3:05:17.760';-0.465;0.045
'3:05:17.764';-0.43;0.02
'3:05:17.768';-0.535;0.015
'3:05:17.772';-0.61;0.04
'3:05:17.776';-0.515;0.045
'3:05:17.780';-0.43;0.04
'3:05:17.784';-0.52;0.025
'3:05:17.788';-0.535;-0.02
'3:05:17.792';-0.49;-0.025
'3:05:17.796';-0.425;-0.01
'3:05:17.800';-0.5;0
'3:05:17.804';-0.57;-0.015
'3:05:17.808';-0.5;-0.015
'3:05:17.812';-0.465;-0.015
'3:05:17.816';-0.535;0
'3:05:17.820';-0.58;-0.04
'3:05:17.824';-0.49;-0.03
'3:05:17.828';-0.425;-0.025
'3:05:17.832';-0.51;-0.04
'3:05:17.836';-0.605;-0.04
'3:05:17.840';-0.505;-0.04
'3:05:17.844';-0.44;-0.05
'3:05:17.848';-0.48;-0.08
'3:05:17.852';-0.58;-0.08
'3:05:17.856';-0.54;-0.055
'3:05:17.860';-0.435;-0.045
'3:05:17.864';-0.49;-0.045
'3:05:17.868';-0.545;-0.035
'3:05:17.872';-0.51;-0.065
'3:05:17.876';-0.375;-0.065
'3:05:17.880';-0.41;-0.08
'3:05:17.884';-0.49;-0.05
'3:05:17.888';-0.48;-0.045
'3:05:17.892';-0.37;-0.035
'3:05:17.896';-0.31;-0.04
'3:05:17.900';-0.405;-0.04
'3:05:17.904';-0.36;0.01
'3:05:17.908';-0.24;-0.01
'3:05:17.912';-0.235;0.015
'3:05:17.916';-0.31;0.025
'3:05:17.920';-0.315;0.095
'3:05:17.924';-0.19;0.105
'3:05:17.928';-0.18;0.115
'3:05:17.932';-0.28;0.135
'3:05:17.936';-0.28;0.15
'3:05:17.940';-0.25;0.165
'3:05:17.944';-0.275;0.14
'3:05:17.948';-0.39;0.035
'3:05:17.952';-0.415;-0.03
'3:05:17.956';-0.33;-0.02
'3:05:17.960';-0.285;-0.085
'3:05:17.964';-0.445;-0.11
'3:05:17.968';-0.535;-0.095
'3:05:17.972';-0.545;-0.105
'3:05:17.976';-0.495;-0.085
'3:05:17.980';-0.59;-0.145
'3:05:17.984';-0.645;-0.15
'3:05:17.988';-0.58;-0.11
'3:05:17.992';-0.5;-0.105
'3:05:17.996';-0.58;-0.095
'3:05:18.000';-0.68;-0.16
'3:05:18.004';-0.65;-0.15
'3:05:18.008';-0.565;-0.145
'3:05:18.012';-0.585;-0.15
'3:05:18.016';-0.645;-0.17
'3:05:18.020';-0.625;-0.14
'3:05:18.024';-0.525;-0.13
'3:05:18.028';-0.54;-0.14
'3:05:18.032';-0.67;-0.16
'3:05:18.036';-0.69;-0.16
'3:05:18.040';-0.615;-0.135
'3:05:18.044';-0.505;-0.145
'3:05:18.048';-0.37;-0.13
'3:05:18.052';-0.06;0.015
'3:05:18.056';0.425;0.185
'3:05:18.060';0.84;0.255
'3:05:18.064';1.095;0.295
'3:05:18.068';1.11;0.41
'3:05:18.072';0.82;0.61
'3:05:18.076';0.24;0.45
'3:05:18.080';-0.35;-0.08
'3:05:18.084';-0.8;-0.715
'3:05:18.088';-0.94;-1.12
'3:05:18.092';-0.93;-1.51
'3:05:18.096';-0.965;-1.805
'3:05:18.100';-0.91;-1.995
'3:05:18.104';-0.66;-2.065
'3:05:18.108';-0.51;-1.97
'3:05:18.112';-0.56;-1.73
'3:05:18.116';-0.66;-1.345
'3:05:18.120';-0.58;-0.925
'3:05:18.124';-0.455;-0.625
'3:05:18.128';-0.48;-0.35
'3:05:18.132';-0.56;-0.22
'3:05:18.136';-0.505;-0.12
'3:05:18.140';-0.43;-0.095
'3:05:18.144';-0.5;-0.09
'3:05:18.148';-0.6;-0.085
'3:05:18.152';-0.585;-0.03
'3:05:18.156';-0.475;-0.03
'3:05:18.160';-0.525;-0.055
'3:05:18.164';-0.61;-0.075
'3:05:18.168';-0.58;-0.04
'3:05:18.172';-0.49;-0.025
'3:05:18.176';-0.495;-0.05
'3:05:18.180';-0.545;-0.04
'3:05:18.184';-0.56;-0.025
'3:05:18.188';-0.435;0.05
'3:05:18.192';-0.405;0.035
'3:05:18.196';-0.48;0.035
'3:05:18.200';-0.525;0.045
'3:05:18.204';-0.43;0.06
'3:05:18.208';-0.39;0
'3:05:18.212';-0.48;0.03
'3:05:18.216';-0.515;0.025
'3:05:18.220';-0.425;0.065
'3:05:18.224';-0.375;0.075
'3:05:18.228';-0.42;0.115
'3:05:18.232';-0.455;0.1
'3:05:18.236';-0.38;0.09
'3:05:18.240';-0.275;0.1
'3:05:18.244';-0.29;0.11
'3:05:18.248';-0.35;0.15
'3:05:18.252';-0.29;0.19
'3:05:18.256';-0.165;0.2
'3:05:18.260';-0.215;0.255
'3:05:18.264';-0.24;0.235
'3:05:18.268';-0.19;0.295
'3:05:18.272';-0.07;0.31
'3:05:18.276';-0.08;0.345
'3:05:18.280';-0.12;0.375
'3:05:18.284';-0.11;0.465
'3:05:18.288';0.03;0.505
'3:05:18.292';0.035;0.525
'3:05:18.296';-0.015;0.485
'3:05:18.300';0.045;0.48
'3:05:18.304';0.155;0.505
'3:05:18.308';0.15;0.55
'3:05:18.312';0.05;0.56
'3:05:18.316';0.02;0.59
'3:05:18.320';0.075;0.615
'3:05:18.324';0.08;0.585
'3:05:18.328';-0.035;0.54
'3:05:18.332';-0.15;0.54
'3:05:18.336';-0.09;0.535
'3:05:18.340';-0.095;0.51
'3:05:18.344';-0.185;0.5
'3:05:18.348';-0.32;0.435
'3:05:18.352';-0.275;0.42
'3:05:18.356';-0.25;0.37
'3:05:18.360';-0.37;0.31
'3:05:18.364';-0.465;0.24
'3:05:18.368';-0.46;0.28
'3:05:18.372';-0.41;0.225
'3:05:18.376';-0.445;0.13
'3:05:18.380';-0.56;0.09
'3:05:18.384';-0.51;0.07
'3:05:18.388';-0.42;0.065
