Time;Ecg 1;Ecg 2
11:06:06.229;6230801.0;6039061.0
11:06:06.269;6230283.0;6038228.0
11:06:06.309;6229870.0;6036960.0
11:06:06.349;6237018.0;6049438.0
11:06:06.389;6229306.0;6038503.0
11:06:06.429;6230273.0;6034875.0
11:06:06.469;6230282.0;6034307.0
11:06:06.509;6230727.0;6034761.0
11:06:06.549;6231113.0;6034778.0
11:06:06.589;6231471.0;6036616.0
11:06:06.629;6231652.0;6037187.0
11:06:06.669;6232263.0;6037913.0
11:06:06.709;6233245.0;6038516.0
11:06:06.749;6234179.0;6038943.0
11:06:06.789;6234523.0;6039339.0
11:06:06.829;6234854.0;6039661.0
11:06:06.869;6235830.0;6041524.0
11:06:06.909;6236547.0;6041444.0
11:06:06.949;6236266.0;6041650.0
11:06:06.989;6243740.0;6052227.0
11:06:07.029;6234422.0;6040916.0
11:06:07.069;6236472.0;6040940.0
11:06:07.109;6236576.0;6040644.0
11:06:07.149;6236583.0;6039455.0
11:06:07.189;6236146.0;6039008.0
11:06:07.229;6236374.0;6041722.0
11:06:07.269;6236499.0;6042930.0
11:06:07.309;6236153.0;6041818.0
11:06:07.349;6236180.0;6041913.0
11:06:07.389;6236196.0;6041984.0
11:06:07.429;6239198.0;6046346.0
11:06:07.469;6234296.0;6040500.0
11:06:07.509;6234572.0;6039823.0
11:06:07.549;6234251.0;6039118.0
11:06:07.589;6233535.0;6038041.0
11:06:07.629;6233539.0;6039141.0
11:06:07.669;6232963.0;6040664.0
11:06:07.709;6232512.0;6040483.0
11:06:07.749;6232025.0;6040199.0
11:06:07.789;6232142.0;6039796.0
11:06:07.829;6231250.0;6039532.0
11:06:07.869;6230537.0;6039057.0
11:06:07.909;6229888.0;6038505.0
11:06:07.949;6230049.0;6039076.0
11:06:07.989;6235415.0;6046332.0
11:06:08.029;6227776.0;6036861.0
11:06:08.069;6228256.0;6035619.0
11:06:08.109;6227646.0;6035386.0
11:06:08.149;6227475.0;6034754.0
11:06:08.189;6226868.0;6034984.0
11:06:08.229;6226886.0;6036146.0
11:06:08.269;6226541.0;6036540.0
11:06:08.309;6226387.0;6036503.0
11:06:08.349;6225717.0;6035491.0
11:06:08.389;6225047.0;6035032.0
11:06:08.429;6223908.0;6034341.0
11:06:08.469;6230374.0;6045075.0
11:06:08.509;6222507.0;6033399.0
11:06:08.549;6222473.0;6031761.0
11:06:08.589;6221900.0;6031274.0
11:06:08.629;6222905.0;6032639.0
11:06:08.669;6228537.0;6037783.0
11:06:08.709;6230064.0;6040345.0
11:06:08.749;6230866.0;6041638.0
11:06:08.789;6232106.0;6043923.0
11:06:08.829;6236143.0;6047920.0
11:06:08.869;6232067.0;6042337.0
11:06:08.909;6231766.0;6040973.0
11:06:08.949;6230954.0;6040887.0
11:06:08.989;6230673.0;6040241.0
11:06:09.029;6230878.0;6040739.0
11:06:09.069;6229637.0;6041040.0
11:06:09.109;6229592.0;6042348.0
11:06:09.149;6229581.0;6041763.0
11:06:09.189;6228832.0;6040983.0
11:06:09.229;6228268.0;6040018.0
11:06:09.269;6228285.0;6040581.0
11:06:09.309;6228665.0;6046783.0
11:06:09.349;6229105.0;6042500.0
11:06:09.389;6227321.0;6039137.0
11:06:09.429;6227496.0;6038642.0
11:06:09.469;6226930.0;6037811.0
11:06:09.509;6226131.0;6037247.0
11:06:09.549;6226474.0;6038898.0
11:06:09.589;6226311.0;6039424.0
11:06:09.629;6225772.0;6038862.0
11:06:09.669;6225330.0;6038867.0
11:06:09.709;6225723.0;6039106.0
11:06:09.749;6232625.0;6050127.0
11:06:09.789;6223365.0;6039627.0
11:06:09.829;6224191.0;6036529.0
11:06:09.869;6223971.0;6036200.0
11:06:09.909;6223645.0;6034852.0
11:06:09.949;6223672.0;6036406.0
11:06:09.989;6224037.0;6037957.0
11:06:10.029;6223954.0;6037989.0
11:06:10.069;6223552.0;6037556.0
11:06:10.109;6223221.0;6037727.0
11:06:10.149;6223231.0;6037376.0
11:06:10.189;6223172.0;6037456.0
11:06:10.378;6223542.0;6037197.0
11:06:10.418;6220766.0;6035945.0
11:06:10.458;6221360.0;6035462.0
11:06:10.498;6221574.0;6035317.0
11:06:10.538;6221481.0;6034830.0
11:06:10.578;6221098.0;6034916.0
11:06:10.618;6221312.0;6036949.0
11:06:10.658;6221467.0;6037449.0
11:06:10.698;6221573.0;6037515.0
11:06:10.738;6225939.0;6043263.0
11:06:10.778;6220826.0;6036646.0
11:06:10.818;6221364.0;6035718.0
11:06:10.858;6221897.0;6036040.0
11:06:10.898;6222066.0;6035638.0
11:06:10.938;6221848.0;6036197.0
11:06:10.978;6222177.0;6038221.0
11:06:11.018;6222004.0;6038757.0
11:06:11.058;6222012.0;6038552.0
11:06:11.098;6223928.0;6047687.0
11:06:11.138;6221324.0;6040991.0
11:06:11.178;6221012.0;6036368.0
11:06:11.218;6221123.0;6036248.0
11:06:11.258;6221192.0;6035228.0
11:06:11.298;6221230.0;6035121.0
11:06:11.338;6220958.0;6037365.0
11:06:11.378;6221060.0;6038187.0
11:06:11.418;6221257.0;6037404.0
11:06:11.458;6221083.0;6037124.0
11:06:11.498;6220863.0;6037791.0
11:06:11.538;6220504.0;6042626.0
11:06:11.578;6222781.0;6040234.0
11:06:11.618;6219971.0;6035462.0
11:06:11.658;6220027.0;6035389.0
11:06:11.698;6219687.0;6034994.0
11:06:11.738;6219972.0;6034412.0
11:06:11.778;6219785.0;6035017.0
11:06:11.818;6220194.0;6036749.0
11:06:11.858;6219570.0;6037655.0
11:06:11.898;6219645.0;6037050.0
11:06:11.938;6219694.0;6036816.0
11:06:11.978;6219620.0;6037541.0
11:06:12.018;6222414.0;6041430.0
11:06:12.058;6218064.0;6035734.0
11:06:12.098;6218860.0;6035046.0
11:06:12.138;6218936.0;6035014.0
11:06:12.178;6218389.0;6034656.0
11:06:12.218;6218445.0;6036276.0
11:06:12.258;6218974.0;6038079.0
11:06:12.298;6218830.0;6037797.0
11:06:12.338;6218395.0;6037554.0
11:06:12.378;6218814.0;6038236.0
11:06:12.418;6218567.0;6038472.0
11:06:12.458;6218267.0;6038087.0
11:06:12.498;6218550.0;6038280.0
11:06:12.538;6218357.0;6037982.0
11:06:12.578;6222336.0;6049105.0
11:06:12.618;6217823.0;6040390.0
11:06:12.658;6217585.0;6036252.0
11:06:12.698;6217595.0;6036394.0
11:06:12.738;6217343.0;6036578.0
11:06:12.778;6217456.0;6036050.0
11:06:12.818;6217603.0;6037022.0
11:06:12.858;6217884.0;6038599.0
11:06:12.898;6217931.0;6038948.0
11:06:12.938;6217878.0;6038733.0
11:06:12.978;6217720.0;6038221.0
11:06:13.018;6223868.0;6051547.0
11:06:13.058;6216089.0;6040860.0
11:06:13.098;6217220.0;6037354.0
11:06:13.138;6216986.0;6036519.0
11:06:13.178;6216979.0;6035730.0
11:06:13.218;6216860.0;6036720.0
11:06:13.258;6217014.0;6038349.0
11:06:13.298;6216955.0;6038970.0
11:06:13.338;6217039.0;6044082.0
11:06:13.378;6218233.0;6041293.0
11:06:13.418;6216684.0;6037521.0
11:06:13.458;6216539.0;6037305.0
11:06:13.498;6217082.0;6036974.0
11:06:13.538;6216737.0;6037056.0
11:06:13.578;6216927.0;6039033.0
11:06:13.618;6217301.0;6040807.0
11:06:13.658;6217368.0;6040328.0
11:06:13.698;6216910.0;6040251.0
11:06:13.738;6217558.0;6040610.0
11:06:13.778;6217194.0;6041233.0
11:06:13.818;6216904.0;6040602.0
11:06:13.858;6216721.0;6040722.0
11:06:13.898;6217205.0;6040921.0
11:06:13.938;6217051.0;6041086.0
11:06:13.978;6216793.0;6041073.0
11:06:14.018;6216719.0;6040984.0
11:06:14.058;6216782.0;6041023.0
11:06:14.098;6223448.0;6054479.0
11:06:14.138;6215594.0;6043139.0
11:06:14.178;6216283.0;6039520.0
11:06:14.218;6216590.0;6039227.0
11:06:14.258;6216436.0;6039648.0
11:06:14.298;6216384.0;6039443.0
11:06:14.338;6216454.0;6040427.0
11:06:14.653;6217194.0;6042190.0
11:06:14.693;6216489.0;6040922.0
11:06:14.733;6216225.0;6039867.0
11:06:14.773;6216360.0;6039322.0
11:06:14.813;6216448.0;6041375.0
11:06:14.853;6216491.0;6043231.0
11:06:14.893;6216424.0;6042736.0
11:06:14.933;6216536.0;6042702.0
11:06:14.973;6216481.0;6042940.0
11:06:15.013;6216299.0;6042886.0
11:06:15.053;6216454.0;6043100.0
11:06:15.093;6216339.0;6043257.0
11:06:15.133;6216055.0;6043375.0
11:06:15.173;6216448.0;6043636.0
11:06:15.213;6216748.0;6043626.0
11:06:15.253;6216295.0;6043244.0
11:06:15.293;6218713.0;6053533.0
11:06:15.333;6216290.0;6046463.0
11:06:15.373;6215776.0;6041924.0
11:06:15.413;6215785.0;6041769.0
11:06:15.453;6215590.0;6041226.0
11:06:15.493;6215380.0;6041406.0
11:06:15.533;6215400.0;6042827.0
11:06:15.573;6215966.0;6044171.0
11:06:15.613;6215763.0;6043932.0
11:06:15.653;6215999.0;6043938.0
11:06:15.693;6215726.0;6044556.0
11:06:15.733;6215834.0;6044425.0
11:06:15.773;6215552.0;6044470.0
11:06:15.813;6215812.0;6044571.0
11:06:15.853;6219106.0;6055358.0
11:06:15.893;6215757.0;6047669.0
11:06:15.933;6215093.0;6043272.0
11:06:15.973;6215222.0;6043260.0
11:06:16.013;6215165.0;6043243.0
11:06:16.053;6215159.0;6043423.0
11:06:16.093;6215343.0;6044690.0
11:06:16.133;6215509.0;6045865.0
11:06:16.173;6215841.0;6046091.0
11:06:16.213;6215840.0;6046452.0
11:06:16.253;6215568.0;6046301.0
11:06:16.293;6221600.0;6054849.0
11:06:16.333;6215003.0;6046580.0
11:06:16.373;6215735.0;6045141.0
11:06:16.413;6215403.0;6044462.0
11:06:16.453;6216202.0;6045419.0
11:06:16.493;6216150.0;6046686.0
11:06:16.533;6216471.0;6048123.0
11:06:16.573;6216298.0;6048008.0
11:06:16.613;6216392.0;6048349.0
11:06:16.653;6216382.0;6048850.0
11:06:16.693;6216878.0;6049139.0
11:06:16.733;6222297.0;6062025.0
11:06:16.773;6215056.0;6052302.0
11:06:16.813;6216063.0;6048081.0
11:06:16.853;6216747.0;6048345.0
11:06:16.893;6216666.0;6047843.0
11:06:16.933;6216709.0;6048138.0
11:06:16.973;6216847.0;6050495.0
11:06:17.013;6216911.0;6051050.0
11:06:17.053;6216526.0;6050797.0
11:06:17.093;6217264.0;6051037.0
11:06:17.133;6216857.0;6051714.0
11:06:17.173;6221426.0;6056464.0
11:06:17.213;6216211.0;6050310.0
11:06:17.253;6216645.0;6049564.0
11:06:17.293;6216663.0;6049673.0
11:06:17.333;6216196.0;6049394.0
11:06:17.373;6216398.0;6050260.0
11:06:17.413;6216900.0;6052217.0
11:06:17.453;6216764.0;6052487.0
11:06:17.493;6216753.0;6052098.0
11:06:17.533;6216787.0;6052987.0
11:06:17.573;6224317.0;6065683.0
11:06:17.613;6215193.0;6053655.0
11:06:17.653;6216014.0;6050953.0
11:06:17.693;6216766.0;6050941.0
11:06:17.733;6215923.0;6051272.0
11:06:17.773;6216215.0;6051980.0
11:06:17.813;6216951.0;6053853.0
11:06:17.853;6216483.0;6053366.0
11:06:17.893;6216276.0;6054405.0
11:06:17.933;6216872.0;6054844.0
11:06:17.973;6216900.0;6055317.0
11:06:18.013;6216742.0;6054903.0
11:06:18.053;6216973.0;6055472.0
11:06:18.093;6216829.0;6055495.0
11:06:18.133;6216674.0;6055558.0
11:06:18.173;6216812.0;6055797.0
11:06:18.213;6220558.0;6066164.0
11:06:18.253;6215870.0;6058923.0
11:06:18.293;6216714.0;6055170.0
11:06:18.333;6216618.0;6055244.0
11:06:18.373;6216281.0;6054434.0
11:06:18.413;6216231.0;6054239.0
11:06:18.453;6217025.0;6056143.0
11:06:18.493;6217185.0;6057773.0
11:06:18.533;6216734.0;6056766.0
11:06:18.573;6216852.0;6056155.0
11:06:18.613;6216912.0;6056648.0
11:06:18.968;6223111.0;6067401.0
11:06:19.008;6216685.0;6055325.0
11:06:19.048;6216833.0;6055335.0
11:06:19.088;6216163.0;6055450.0
11:06:19.128;6216727.0;6055647.0
11:06:19.168;6216669.0;6054542.0
11:06:19.208;6216528.0;6053731.0
11:06:19.248;6220944.0;6061250.0
11:06:19.288;6216145.0;6053503.0
11:06:19.328;6216669.0;6052495.0
11:06:19.368;6215937.0;6050616.0
11:06:19.408;6216692.0;6051100.0
11:06:19.448;6216928.0;6052148.0
11:06:19.488;6217323.0;6053458.0
11:06:19.528;6217599.0;6052854.0
11:06:19.568;6217882.0;6052460.0
11:06:19.608;6217398.0;6052464.0
11:06:19.648;6217714.0;6052614.0
11:06:19.688;6218485.0;6052458.0
11:06:19.728;6218689.0;6052149.0
11:06:19.768;6219514.0;6058339.0
11:06:19.808;6222098.0;6056066.0
11:06:19.848;6219597.0;6051462.0
11:06:19.888;6219293.0;6050732.0
11:06:19.928;6220066.0;6051456.0
11:06:19.968;6220389.0;6051103.0
11:06:20.008;6220614.0;6051829.0
11:06:20.048;6221055.0;6053454.0
11:06:20.088;6221626.0;6053937.0
11:06:20.128;6221880.0;6053782.0
11:06:20.168;6221715.0;6053244.0
11:06:20.208;6229417.0;6065875.0
11:06:20.248;6221315.0;6054731.0
11:06:20.288;6222213.0;6051923.0
11:06:20.328;6222353.0;6051998.0
11:06:20.368;6222855.0;6051537.0
11:06:20.408;6223198.0;6052420.0
11:06:20.448;6223283.0;6054229.0
11:06:20.488;6223849.0;6054811.0
11:06:20.528;6223970.0;6054599.0
11:06:20.568;6224161.0;6054905.0
11:06:20.608;6224608.0;6055931.0
11:06:20.648;6225641.0;6056413.0
11:06:20.688;6233748.0;6069936.0
11:06:20.728;6224423.0;6057335.0
11:06:20.768;6226579.0;6056024.0
11:06:20.808;6227556.0;6056760.0
11:06:20.848;6228067.0;6057205.0
11:06:20.888;6229693.0;6058598.0
11:06:20.928;6230345.0;6061063.0
11:06:20.968;6230667.0;6062015.0
11:06:21.008;6231894.0;6063597.0
11:06:21.048;6232867.0;6064201.0
11:06:21.088;6233552.0;6064433.0
11:06:21.128;6233948.0;6065262.0
11:06:21.168;6234683.0;6066399.0
11:06:21.208;6235145.0;6066981.0
11:06:21.248;6235537.0;6067120.0
11:06:21.288;6243652.0;6078875.0
11:06:21.328;6234823.0;6068626.0
11:06:21.368;6235958.0;6067018.0
11:06:21.408;6236929.0;6067701.0
11:06:21.448;6236925.0;6067600.0
11:06:21.488;6237084.0;6068543.0
11:06:21.528;6237858.0;6070923.0
11:06:21.568;6238143.0;6071512.0
11:06:21.608;6238121.0;6070920.0
11:06:21.648;6238389.0;6071129.0
11:06:21.688;6237846.0;6071742.0
11:06:21.728;6237638.0;6071968.0
11:06:21.768;6237642.0;6071418.0
11:06:21.808;6237613.0;6070604.0
11:06:21.848;6243705.0;6084852.0
11:06:21.888;6235183.0;6072668.0
11:06:21.928;6236027.0;6069294.0
11:06:21.968;6235633.0;6068280.0
11:06:22.008;6234988.0;6068274.0
11:06:22.048;6234548.0;6068132.0
11:06:22.088;6234058.0;6069296.0
11:06:22.128;6233933.0;6069168.0
11:06:22.168;6233030.0;6068764.0
11:06:22.208;6232357.0;6068435.0
11:06:22.248;6235633.0;6073045.0
11:06:22.288;6229759.0;6065846.0
11:06:22.328;6228598.0;6063319.0
11:06:22.368;6226699.0;6061670.0
11:06:22.408;6224889.0;6059484.0
11:06:22.448;6222499.0;6058280.0
11:06:22.488;6220152.0;6057366.0
11:06:22.528;6220872.0;6058679.0
11:06:22.568;6221804.0;6059135.0
11:06:22.608;6225983.0;6071796.0
11:06:22.648;6219803.0;6062203.0
11:06:22.688;6220931.0;6057654.0
11:06:22.728;6220667.0;6056571.0
11:06:22.768;6220282.0;6056886.0
11:06:22.808;6220752.0;6058121.0
11:06:22.848;6221693.0;6060341.0
11:06:22.888;6222076.0;6060950.0
11:06:22.928;6222560.0;6061994.0
11:06:23.273;6224059.0;6063528.0
11:06:23.313;6226121.0;6063361.0
11:06:23.353;6226440.0;6064509.0
11:06:23.393;6227407.0;6066932.0
11:06:23.433;6228525.0;6068108.0
11:06:23.473;6229614.0;6068318.0
11:06:23.513;6229423.0;6068938.0
11:06:23.553;6229630.0;6069264.0
11:06:23.593;6229953.0;6069113.0
11:06:23.633;6230963.0;6069969.0
11:06:23.673;6230863.0;6069695.0
11:06:23.713;6230787.0;6069372.0
11:06:23.753;6230781.0;6068712.0
11:06:23.793;6230522.0;6068471.0
11:06:23.833;6238603.0;6082378.0
11:06:23.873;6230074.0;6070409.0
11:06:23.913;6231073.0;6067216.0
11:06:23.953;6230879.0;6066213.0
11:06:23.993;6230882.0;6065672.0
11:06:24.033;6230812.0;6066471.0
11:06:24.073;6231158.0;6067031.0
11:06:24.113;6231301.0;6067172.0
11:06:24.153;6230938.0;6066549.0
11:06:24.193;6230982.0;6067597.0
11:06:24.233;6231206.0;6066843.0
11:06:24.273;6235916.0;6078738.0
11:06:24.313;6229104.0;6067860.0
11:06:24.353;6230371.0;6064351.0
11:06:24.393;6230165.0;6063441.0
11:06:24.433;6229983.0;6062165.0
11:06:24.473;6229566.0;6062067.0
11:06:24.513;6230409.0;6063916.0
11:06:24.553;6230063.0;6064801.0
11:06:24.593;6229599.0;6063604.0
11:06:24.633;6229346.0;6063596.0
11:06:24.673;6229489.0;6063234.0
11:06:24.713;6230599.0;6071657.0
11:06:24.753;6229059.0;6065721.0
11:06:24.793;6228742.0;6060932.0
11:06:24.833;6228369.0;6059983.0
11:06:24.873;6228297.0;6058512.0
11:06:24.913;6228050.0;6058939.0
11:06:24.953;6228193.0;6060690.0
11:06:24.993;6228002.0;6061194.0
11:06:25.033;6227926.0;6060467.0
11:06:25.073;6227535.0;6060539.0
11:06:25.113;6227909.0;6061071.0
11:06:25.153;6227798.0;6060055.0
11:06:25.193;6227623.0;6059889.0
11:06:25.233;6226835.0;6059479.0
11:06:25.273;6234311.0;6073348.0
11:06:25.313;6226382.0;6062076.0
11:06:25.353;6226522.0;6057306.0
11:06:25.393;6225588.0;6056924.0
11:06:25.433;6225898.0;6057580.0
11:06:25.473;6225565.0;6056860.0
11:06:25.513;6225597.0;6058013.0
11:06:25.553;6225402.0;6059057.0
11:06:25.593;6225922.0;6058742.0
11:06:25.633;6225706.0;6058210.0
11:06:25.673;6228966.0;6062258.0
11:06:25.713;6224492.0;6057503.0
11:06:25.753;6224530.0;6056063.0
11:06:25.793;6224154.0;6055363.0
11:06:25.833;6223854.0;6056374.0
11:06:25.873;6224508.0;6056602.0
11:06:25.913;6224157.0;6057556.0
11:06:25.953;6224791.0;6058631.0
11:06:25.993;6227425.0;6063606.0
11:06:26.033;6223325.0;6057243.0
11:06:26.073;6223456.0;6055921.0
11:06:26.113;6223860.0;6055469.0
11:06:26.153;6223141.0;6055766.0
11:06:26.193;6223138.0;6056520.0
11:06:26.233;6223384.0;6058150.0
11:06:26.273;6223625.0;6057960.0
11:06:26.313;6223623.0;6058049.0
11:06:26.353;6223183.0;6058407.0
11:06:26.393;6223083.0;6058072.0
11:06:26.433;6222967.0;6058216.0
11:06:26.473;6222786.0;6058229.0
11:06:26.513;6223270.0;6057718.0
11:06:26.553;6227296.0;6064607.0
11:06:26.593;6221836.0;6057791.0
11:06:26.633;6222331.0;6057268.0
11:06:26.673;6222475.0;6056699.0
11:06:26.713;6222095.0;6056280.0
11:06:26.753;6222035.0;6057356.0
11:06:26.793;6222815.0;6059208.0
11:06:26.833;6223107.0;6059642.0
11:06:26.873;6222854.0;6059408.0
11:06:26.913;6222527.0;6059588.0
11:06:26.953;6223450.0;6064682.0
11:06:26.993;6223624.0;6063864.0
11:06:27.033;6222501.0;6058335.0
11:06:27.073;6222767.0;6058435.0
11:06:27.113;6222360.0;6058626.0
11:06:27.153;6222186.0;6058695.0
11:06:27.193;6222845.0;6060019.0
11:06:27.233;6223257.0;6061519.0
11:06:27.556;6223168.0;6061674.0
11:06:27.596;6222860.0;6061706.0
11:06:27.636;6222299.0;6061379.0
11:06:27.676;6222983.0;6061705.0
11:06:27.716;6222686.0;6062318.0
11:06:27.756;6222961.0;6063601.0
11:06:27.796;6223069.0;6064767.0
11:06:27.836;6223779.0;6065166.0
11:06:27.876;6223477.0;6066724.0
11:06:27.916;6216999.0;6078098.0
11:06:27.956;6216838.0;6064004.0
11:06:27.996;6224760.0;6064710.0
11:06:28.036;6225020.0;6064895.0
11:06:28.076;6226527.0;6065009.0
11:06:28.116;6227823.0;6066339.0
11:06:28.156;6228262.0;6068012.0
11:06:28.196;6226181.0;6068685.0
11:06:28.236;6224972.0;6068298.0
11:06:28.276;6224565.0;6069219.0
11:06:28.316;6225242.0;6070339.0
11:06:28.356;6233280.0;6084182.0
11:06:28.396;6223645.0;6071337.0
11:06:28.436;6224745.0;6069385.0
11:06:28.476;6224984.0;6069447.0
11:06:28.516;6225140.0;6069081.0
11:06:28.556;6224846.0;6069799.0
11:06:28.596;6226058.0;6072350.0
11:06:28.636;6226200.0;6073450.0
11:06:28.676;6226616.0;6073272.0
11:06:28.716;6228629.0;6083361.0
11:06:28.756;6226307.0;6077419.0
11:06:28.796;6226582.0;6073038.0
11:06:28.836;6227509.0;6073423.0
11:06:28.876;6227625.0;6073052.0
11:06:28.916;6228266.0;6074166.0
11:06:28.956;6228713.0;6076744.0
11:06:28.996;6229463.0;6077732.0
11:06:29.036;6229070.0;6077433.0
11:06:29.076;6229749.0;6078462.0
11:06:29.116;6230595.0;6079478.0
11:06:29.156;6230725.0;6079768.0
11:06:29.196;6231082.0;6080215.0
11:06:29.236;6232249.0;6080143.0
11:06:29.276;6231869.0;6080671.0
11:06:29.316;6232268.0;6081267.0
11:06:29.356;6232935.0;6081619.0
11:06:29.396;6232898.0;6081874.0
11:06:29.436;6233341.0;6082707.0
11:06:29.476;6234221.0;6083114.0
11:06:29.516;6240686.0;6096439.0
11:06:29.556;6233818.0;6086321.0
11:06:29.596;6234947.0;6083367.0
11:06:29.636;6235496.0;6083447.0
11:06:29.676;6235933.0;6083468.0
11:06:29.716;6236084.0;6084157.0
11:06:29.756;6236981.0;6086139.0
11:06:29.796;6237867.0;6087652.0
11:06:29.836;6238298.0;6087808.0
11:06:29.876;6238777.0;6088507.0
11:06:29.916;6239156.0;6089704.0
11:06:29.956;6244409.0;6102322.0
11:06:29.996;6239190.0;6092878.0
11:06:30.036;6240806.0;6089002.0
11:06:30.076;6241106.0;6089227.0
11:06:30.116;6241389.0;6089787.0
11:06:30.156;6242509.0;6090824.0
11:06:30.196;6243205.0;6092676.0
11:06:30.236;6243566.0;6093757.0
11:06:30.276;6243838.0;6094464.0
11:06:30.316;6244584.0;6095174.0
11:06:30.356;6245229.0;6095331.0
11:06:30.396;6245332.0;6095908.0
11:06:30.436;6245281.0;6096434.0
11:06:30.476;6250017.0;6101338.0
11:06:30.516;6245639.0;6096306.0
11:06:30.556;6246132.0;6095729.0
11:06:30.596;6246692.0;6095521.0
11:06:30.636;6246648.0;6096163.0
11:06:30.676;6247196.0;6097019.0
11:06:30.716;6247563.0;6098690.0
11:06:30.756;6247960.0;6099329.0
11:06:30.796;6248027.0;6100210.0
11:06:30.836;6248300.0;6099842.0
11:06:30.876;6248280.0;6099636.0
11:06:30.916;6249073.0;6100821.0
11:06:30.956;6248808.0;6101520.0
11:06:30.996;6251584.0;6110960.0
11:06:31.036;6249727.0;6103939.0
11:06:31.076;6249128.0;6100100.0
11:06:31.116;6248894.0;6100624.0
11:06:31.156;6249274.0;6100604.0
11:06:31.196;6249487.0;6099991.0
11:06:31.236;6249922.0;6101646.0
11:06:31.276;6250097.0;6103948.0
11:06:31.316;6250250.0;6104089.0
11:06:31.356;6250272.0;6103421.0
11:06:31.396;6250633.0;6103778.0
11:06:31.436;6250928.0;6104452.0
11:06:31.476;6250451.0;6105259.0
11:06:31.516;6250836.0;6104942.0
11:06:33.914;6250822.0;6105099.0
11:06:33.954;6250727.0;6105898.0
11:06:33.994;6251306.0;6107476.0
11:06:34.034;6251161.0;6107268.0
11:06:34.074;6251653.0;6107170.0
11:06:34.114;6255283.0;6111185.0
11:06:34.154;6250343.0;6107032.0
11:06:34.194;6250696.0;6105623.0
11:06:34.234;6251124.0;6105407.0
11:06:34.274;6250913.0;6106706.0
11:06:34.314;6250871.0;6107447.0
11:06:34.354;6251202.0;6108525.0
11:06:34.394;6251121.0;6109117.0
11:06:34.434;6251447.0;6109435.0
11:06:34.474;6251772.0;6116624.0
11:06:34.514;6251722.0;6112872.0
11:06:34.554;6251228.0;6108689.0
11:06:34.594;6251299.0;6108169.0
11:06:34.634;6250932.0;6108526.0
11:06:34.674;6251543.0;6108391.0
11:06:34.714;6251400.0;6110197.0
11:06:34.754;6251486.0;6111269.0
11:06:34.794;6250877.0;6111485.0
11:06:34.834;6251946.0;6111682.0
11:06:34.874;6251502.0;6111932.0
11:06:34.914;6251719.0;6116051.0
11:06:34.954;6253550.0;6116319.0
11:06:34.994;6251094.0;6110795.0
11:06:35.034;6250661.0;6110351.0
11:06:35.074;6250801.0;6109828.0
11:06:35.114;6250054.0;6110129.0
11:06:35.154;6250322.0;6111192.0
11:06:35.194;6250843.0;6113537.0
11:06:35.234;6251252.0;6112593.0
11:06:35.274;6250679.0;6112758.0
11:06:35.314;6257183.0;6123968.0
11:06:35.354;6249402.0;6114485.0
11:06:35.394;6250839.0;6111331.0
11:06:35.434;6250221.0;6111009.0
11:06:35.474;6250263.0;6111168.0
11:06:35.514;6250780.0;6111812.0
11:06:35.554;6251319.0;6113706.0
11:06:35.594;6251332.0;6115424.0
11:06:35.634;6251739.0;6115320.0
11:06:35.674;6252044.0;6115265.0
11:06:35.714;6259188.0;6129062.0
11:06:35.754;6251320.0;6117533.0
11:06:35.794;6252340.0;6114462.0
11:06:35.834;6252606.0;6113932.0
11:06:35.874;6252938.0;6113148.0
11:06:35.914;6253136.0;6114355.0
11:06:35.954;6253686.0;6116653.0
11:06:35.994;6253768.0;6116373.0
11:06:36.034;6253865.0;6115483.0
11:06:36.074;6254051.0;6115974.0
11:06:36.114;6254229.0;6115327.0
11:06:36.154;6253738.0;6114664.0
11:06:36.194;6254109.0;6114615.0
11:06:36.234;6258231.0;6125523.0
11:06:36.274;6253994.0;6115474.0
11:06:36.314;6253605.0;6110799.0
11:06:36.354;6253791.0;6110201.0
11:06:36.394;6253331.0;6109512.0
11:06:36.434;6253612.0;6108588.0
11:06:36.474;6253613.0;6109053.0
11:06:36.514;6253863.0;6109952.0
11:06:36.554;6253497.0;6109093.0
11:06:36.594;6254691.0;6109557.0
11:06:36.634;6258431.0;6112891.0
11:06:36.674;6261604.0;6119869.0
11:06:36.714;6255681.0;6109736.0
11:06:36.754;6256817.0;6108157.0
11:06:36.794;6256941.0;6107651.0
11:06:36.834;6257430.0;6107919.0
11:06:36.874;6257944.0;6108404.0
11:06:36.914;6258442.0;6109739.0
11:06:36.954;6257771.0;6109214.0
11:06:36.994;6257804.0;6109695.0
11:06:37.034;6258303.0;6109562.0
11:06:37.074;6264095.0;6121766.0
11:06:37.114;6257521.0;6112191.0
11:06:37.154;6258826.0;6107653.0
11:06:37.194;6258657.0;6106928.0
11:06:37.234;6258604.0;6106269.0
11:06:37.274;6258721.0;6106601.0
11:06:37.314;6258761.0;6107804.0
11:06:37.354;6258718.0;6108706.0
11:06:37.394;6258468.0;6108796.0
11:06:37.434;6259196.0;6108617.0
11:06:37.474;6258842.0;6107961.0
11:06:37.514;6264813.0;6118015.0
11:06:37.554;6256642.0;6107586.0
11:06:37.594;6258388.0;6106330.0
11:06:37.634;6258177.0;6104842.0
11:06:37.674;6257462.0;6104368.0
11:06:37.714;6257529.0;6105317.0
11:06:37.754;6257557.0;6106745.0
11:06:37.794;6257080.0;6106307.0
11:06:37.834;6256886.0;6105721.0
11:06:37.874;6256506.0;6105584.0
11:06:38.415;6255767.0;6105286.0
11:06:38.455;6252485.0;6096886.0
11:06:38.495;6251940.0;6097295.0
11:06:38.535;6252051.0;6097984.0
11:06:38.575;6251921.0;6098307.0
11:06:38.615;6251413.0;6097364.0
11:06:38.655;6251880.0;6098254.0
11:06:38.695;6255454.0;6103061.0
11:06:38.735;6249636.0;6096030.0
11:06:38.775;6250198.0;6094117.0
11:06:38.815;6250022.0;6093583.0
11:06:38.855;6249628.0;6093322.0
11:06:38.895;6249796.0;6093847.0
11:06:38.935;6249368.0;6094306.0
11:06:38.975;6248927.0;6094292.0
11:06:39.015;6249109.0;6094628.0
11:06:39.055;6249434.0;6099889.0
11:06:39.095;6250059.0;6097103.0
11:06:39.135;6247993.0;6092023.0
11:06:39.175;6247919.0;6091749.0
11:06:39.215;6248013.0;6091096.0
11:06:39.255;6248513.0;6090957.0
11:06:39.295;6248089.0;6092577.0
11:06:39.335;6248371.0;6093849.0
11:06:39.375;6248018.0;6092910.0
11:06:39.415;6248056.0;6092967.0
11:06:39.455;6247792.0;6093801.0
11:06:39.495;6248051.0;6093395.0
11:06:39.535;6247581.0;6093126.0
11:06:39.575;6247302.0;6093691.0
11:06:39.615;6247987.0;6094207.0
11:06:39.655;6247874.0;6093502.0
11:06:39.695;6247072.0;6093249.0
11:06:39.735;6253096.0;6103481.0
11:06:39.775;6246832.0;6094490.0
11:06:39.815;6247783.0;6093116.0
11:06:39.855;6247323.0;6092558.0
11:06:39.895;6248033.0;6093627.0
11:06:39.935;6247818.0;6094336.0
11:06:39.975;6248191.0;6095433.0
11:06:40.015;6248073.0;6096285.0
11:06:40.055;6249015.0;6096728.0
11:06:40.095;6248741.0;6097258.0
11:06:40.135;6248726.0;6097406.0
11:06:40.175;6248825.0;6097448.0
11:06:40.215;6249109.0;6097915.0
11:06:40.255;6249357.0;6098022.0
11:06:40.295;6248642.0;6098040.0
11:06:40.335;6249581.0;6099472.0
11:06:40.375;6250156.0;6100540.0
11:06:40.415;6252793.0;6102644.0
11:06:40.455;6248429.0;6097768.0
11:06:40.495;6249188.0;6098118.0
11:06:40.535;6249184.0;6097542.0
11:06:40.575;6248909.0;6096772.0
11:06:40.615;6249106.0;6097631.0
11:06:40.655;6248934.0;6100533.0
11:06:40.695;6249847.0;6100781.0
11:06:40.735;6249762.0;6099920.0
11:06:40.775;6249872.0;6099520.0
11:06:40.815;6248860.0;6100185.0
11:06:40.855;6250071.0;6101522.0
11:06:40.895;6250097.0;6100971.0
11:06:40.935;6250001.0;6100604.0
11:06:40.975;6254049.0;6106126.0
11:06:41.015;6249476.0;6100936.0
11:06:41.055;6250012.0;6099835.0
11:06:41.095;6249482.0;6099318.0
11:06:41.135;6249515.0;6099511.0
11:06:41.175;6249576.0;6101468.0
11:06:41.215;6250801.0;6102972.0
11:06:41.255;6250524.0;6102744.0
11:06:41.295;6250513.0;6102843.0
11:06:41.335;6250443.0;6103755.0
11:06:41.375;6251181.0;6109658.0
11:06:41.415;6251438.0;6107049.0
11:06:41.455;6249797.0;6101811.0
11:06:41.495;6249889.0;6101225.0
11:06:41.535;6250074.0;6101333.0
11:06:41.575;6250011.0;6101368.0
11:06:41.615;6249904.0;6102862.0
11:06:41.655;6250317.0;6104093.0
11:06:41.695;6250020.0;6103421.0
11:06:41.735;6250606.0;6104211.0
11:06:41.775;6250678.0;6104470.0
11:06:41.815;6250028.0;6104114.0
11:06:41.855;6252563.0;6113805.0
11:06:41.895;6250109.0;6107280.0
11:06:41.935;6249934.0;6103192.0
11:06:41.975;6249742.0;6102682.0
11:06:42.015;6249841.0;6101929.0
11:06:42.055;6249717.0;6102774.0
11:06:42.095;6249975.0;6104571.0
11:06:42.135;6250032.0;6104550.0
11:06:42.175;6249498.0;6103994.0
11:06:42.215;6249381.0;6104836.0
11:06:42.255;6255831.0;6116282.0
11:06:42.295;6247832.0;6105782.0
11:06:42.335;6248066.0;6101535.0
11:06:42.375;6248825.0;6102429.0
11:06:42.504;6248358.0;6102388.0
11:06:42.544;6248304.0;6107941.0
11:06:42.584;6247373.0;6103931.0
11:06:42.624;6247407.0;6103496.0
11:06:42.664;6247058.0;6102197.0
11:06:42.704;6246452.0;6101979.0
11:06:42.744;6246864.0;6104838.0
11:06:42.784;6247532.0;6105993.0
11:06:42.824;6247660.0;6105411.0
11:06:42.864;6247084.0;6105021.0
11:06:42.904;6254195.0;6118260.0
11:06:42.944;6245723.0;6106658.0
11:06:42.984;6246320.0;6103285.0
11:06:43.024;6246130.0;6102704.0
11:06:43.064;6246030.0;6102902.0
11:06:43.104;6246422.0;6104375.0
11:06:43.144;6246763.0;6105432.0
11:06:43.184;6247008.0;6105632.0
11:06:43.224;6246390.0;6106017.0
11:06:43.264;6245923.0;6105944.0
11:06:43.304;6246762.0;6107024.0
11:06:43.344;6246779.0;6106228.0
11:06:43.384;6246048.0;6106103.0
11:06:43.424;6245508.0;6105556.0
11:06:43.464;6246143.0;6106663.0
11:06:43.504;6253196.0;6115678.0
11:06:43.544;6244710.0;6105640.0
11:06:43.584;6245066.0;6104087.0
11:06:43.624;6245006.0;6104716.0
11:06:43.664;6245476.0;6104122.0
11:06:43.704;6245404.0;6103933.0
11:06:43.744;6245194.0;6105157.0
11:06:43.784;6245238.0;6106295.0
11:06:43.824;6245752.0;6106586.0
11:06:43.864;6245560.0;6105809.0
11:06:43.904;6245504.0;6105039.0
11:06:43.944;6252689.0;6118336.0
11:06:43.984;6244220.0;6105791.0
11:06:44.024;6244755.0;6104007.0
11:06:44.064;6244730.0;6102709.0
11:06:44.104;6244792.0;6103932.0
11:06:44.144;6244902.0;6104017.0
11:06:44.184;6245182.0;6105491.0
11:06:44.224;6245019.0;6105648.0
11:06:44.264;6244986.0;6105515.0
11:06:44.304;6245044.0;6105572.0
11:06:44.344;6252164.0;6118126.0
11:06:44.384;6244260.0;6106997.0
11:06:44.424;6244578.0;6103762.0
11:06:44.464;6244251.0;6102948.0
11:06:44.504;6244259.0;6103901.0
11:06:44.544;6244778.0;6104536.0
11:06:44.584;6245026.0;6105662.0
11:06:44.624;6244679.0;6105991.0
11:06:44.664;6244743.0;6106758.0
11:06:44.704;6245067.0;6106805.0
11:06:44.744;6247829.0;6116858.0
11:06:44.784;6243423.0;6108998.0
11:06:44.824;6243671.0;6104096.0
11:06:44.864;6244236.0;6104666.0
11:06:44.904;6244747.0;6103796.0
11:06:44.944;6244099.0;6103844.0
11:06:44.984;6244219.0;6105501.0
11:06:45.024;6244399.0;6106107.0
11:06:45.064;6244732.0;6106452.0
11:06:45.104;6244192.0;6106515.0
11:06:45.144;6243999.0;6106368.0
11:06:45.184;6243840.0;6106023.0
11:06:45.224;6244251.0;6106117.0
11:06:45.264;6243978.0;6106556.0
11:06:45.304;6243689.0;6106412.0
11:06:45.344;6243346.0;6106056.0
11:06:45.384;6243298.0;6106100.0
11:06:45.424;6244356.0;6110716.0
11:06:45.464;6244644.0;6109481.0
11:06:45.504;6242315.0;6104819.0
11:06:45.544;6243094.0;6105249.0
11:06:45.584;6242879.0;6104708.0
11:06:45.624;6241972.0;6104760.0
11:06:45.664;6242695.0;6105369.0
11:06:45.704;6243500.0;6107258.0
11:06:45.744;6243182.0;6107912.0
11:06:45.784;6242552.0;6107430.0
11:06:45.824;6244991.0;6116046.0
11:06:45.864;6241719.0;6110888.0
11:06:45.904;6242651.0;6106082.0
11:06:45.944;6242007.0;6105098.0
11:06:45.984;6242875.0;6105012.0
11:06:46.024;6242383.0;6105218.0
11:06:46.064;6242493.0;6106965.0
11:06:46.104;6241747.0;6107474.0
11:06:46.144;6242726.0;6107622.0
11:06:46.184;6242182.0;6107431.0
11:06:46.224;6242147.0;6107411.0
11:06:46.264;6241268.0;6107462.0
11:06:46.304;6242179.0;6107737.0
11:06:46.344;6241710.0;6107241.0
11:06:46.384;6241517.0;6108657.0
11:06:46.424;6244332.0;6110666.0
11:06:46.464;6239691.0;6106282.0
11:06:46.807;6240708.0;6105330.0
11:06:46.847;6240372.0;6107201.0
11:06:46.887;6239998.0;6106946.0
11:06:46.927;6240155.0;6107136.0
11:06:46.967;6242951.0;6117181.0
11:06:47.007;6240080.0;6110545.0
11:06:47.047;6239475.0;6106616.0
11:06:47.087;6239826.0;6106596.0
11:06:47.127;6239935.0;6105979.0
11:06:47.167;6240057.0;6106432.0
11:06:47.207;6240752.0;6108594.0
11:06:47.247;6240275.0;6109247.0
11:06:47.287;6239928.0;6108643.0
11:06:47.327;6240416.0;6108911.0
11:06:47.367;6240613.0;6109335.0
11:06:47.407;6239566.0;6109465.0
11:06:47.447;6239963.0;6109533.0
11:06:47.487;6240116.0;6109391.0
11:06:47.527;6244606.0;6121066.0
11:06:47.567;6238981.0;6111887.0
11:06:47.607;6239330.0;6108271.0
11:06:47.647;6239178.0;6107634.0
11:06:47.687;6238928.0;6107419.0
11:06:47.727;6238660.0;6107751.0
11:06:47.767;6239100.0;6109533.0
11:06:47.807;6239421.0;6110121.0
11:06:47.847;6239237.0;6110070.0
11:06:47.887;6238919.0;6109722.0
11:06:47.927;6238607.0;6109794.0
11:06:47.967;6238264.0;6109631.0
11:06:48.007;6238946.0;6110240.0
11:06:48.047;6238415.0;6109640.0
11:06:48.087;6238047.0;6109753.0
11:06:48.127;6238355.0;6109769.0
11:06:48.167;6241884.0;6119551.0
11:06:48.207;6238072.0;6111653.0
11:06:48.247;6237085.0;6108168.0
11:06:48.287;6237590.0;6107972.0
11:06:48.327;6237650.0;6107205.0
11:06:48.367;6237739.0;6107314.0
11:06:48.407;6237259.0;6109032.0
11:06:48.447;6237655.0;6110001.0
11:06:48.487;6237670.0;6109460.0
11:06:48.527;6237830.0;6109436.0
11:06:48.567;6237276.0;6109525.0
11:06:48.607;6237090.0;6109738.0
11:06:48.647;6237184.0;6109925.0
11:06:48.687;6237745.0;6109018.0
11:06:48.727;6236810.0;6109160.0
11:06:48.767;6237076.0;6110002.0
11:06:48.807;6244492.0;6123170.0
11:06:48.847;6235584.0;6111792.0
11:06:48.887;6236353.0;6107944.0
11:06:48.927;6236070.0;6107881.0
11:06:48.967;6235891.0;6107123.0
11:06:49.007;6236252.0;6107493.0
11:06:49.047;6236291.0;6108824.0
11:06:49.087;6236227.0;6109669.0
11:06:49.127;6236514.0;6109456.0
11:06:49.167;6236375.0;6109034.0
11:06:49.207;6235854.0;6109703.0
11:06:49.247;6235803.0;6109519.0
11:06:49.287;6235688.0;6109123.0
11:06:49.327;6235488.0;6108832.0
11:06:49.367;6244707.0;6122712.0
11:06:49.407;6233839.0;6109968.0
11:06:49.447;6234867.0;6107009.0
11:06:49.487;6234954.0;6107019.0
11:06:49.527;6234955.0;6107439.0
11:06:49.567;6234150.0;6107028.0
11:06:49.607;6234672.0;6108117.0
11:06:49.647;6234597.0;6108733.0
11:06:49.687;6234739.0;6108625.0
11:06:49.727;6234353.0;6108585.0
11:06:49.767;6233960.0;6108284.0
11:06:49.807;6234184.0;6108412.0
11:06:49.847;6234218.0;6112767.0
11:06:49.887;6235676.0;6111727.0
11:06:49.927;6232957.0;6106918.0
11:06:49.967;6233763.0;6106752.0
11:06:50.007;6233612.0;6106415.0
11:06:50.047;6233583.0;6106268.0
11:06:50.087;6232941.0;6106877.0
11:06:50.127;6233386.0;6108116.0
11:06:50.167;6233277.0;6108506.0
11:06:50.207;6233525.0;6108619.0
11:06:50.247;6232729.0;6107967.0
11:06:50.287;6232765.0;6111135.0
11:06:50.327;6234949.0;6112034.0
11:06:50.367;6232405.0;6106634.0
11:06:50.407;6231683.0;6105938.0
11:06:50.447;6231704.0;6105469.0
11:06:50.487;6231719.0;6105258.0
11:06:50.527;6231841.0;6106355.0
11:06:50.567;6231052.0;6107594.0
11:06:50.607;6231278.0;6107796.0
11:06:50.647;6231144.0;6107347.0
11:06:50.687;6231354.0;6107680.0
11:06:50.727;6231058.0;6107842.0
11:06:50.767;6230840.0;6108010.0
11:06:51.107;6230463.0;6107502.0
11:06:51.147;6229973.0;6105018.0
11:06:51.187;6229258.0;6105277.0
11:06:51.227;6229688.0;6106641.0
11:06:51.267;6229947.0;6108153.0
11:06:51.307;6230545.0;6108162.0
11:06:51.347;6229776.0;6107705.0
11:06:51.387;6236046.0;6119255.0
11:06:51.427;6228347.0;6109933.0
11:06:51.467;6230057.0;6106418.0
11:06:51.507;6229219.0;6105096.0
11:06:51.547;6228917.0;6104833.0
11:06:51.587;6229652.0;6105805.0
11:06:51.627;6230118.0;6107413.0
11:06:51.667;6229499.0;6107854.0
11:06:51.707;6229320.0;6107491.0
11:06:51.747;6229476.0;6107654.0
11:06:51.787;6236567.0;6120876.0
11:06:51.827;6228461.0;6108371.0
11:06:51.867;6228723.0;6105581.0
11:06:51.907;6228855.0;6105065.0
11:06:51.947;6228909.0;6104525.0
11:06:51.987;6229172.0;6105258.0
11:06:52.027;6228915.0;6107107.0
11:06:52.067;6228841.0;6107360.0
11:06:52.107;6229237.0;6106648.0
11:06:52.147;6229448.0;6106768.0
11:06:52.187;6228571.0;6106570.0
11:06:52.227;6228597.0;6106497.0
11:06:52.267;6236280.0;6119716.0
11:06:52.307;6227567.0;6108225.0
11:06:52.347;6227655.0;6104305.0
11:06:52.387;6228241.0;6103663.0
11:06:52.427;6228113.0;6103871.0
11:06:52.467;6227894.0;6103923.0
11:06:52.507;6228156.0;6105672.0
11:06:52.547;6228253.0;6106069.0
11:06:52.587;6227795.0;6105812.0
11:06:52.627;6227660.0;6105749.0
11:06:52.667;6228002.0;6105546.0
11:06:52.707;6227766.0;6105104.0
11:06:52.747;6227129.0;6107007.0
11:06:52.787;6230957.0;6109220.0
11:06:52.827;6226414.0;6103959.0
11:06:52.867;6226364.0;6102690.0
11:06:52.907;6226938.0;6103176.0
11:06:52.947;6226933.0;6102749.0
11:06:52.987;6226891.0;6103148.0
11:06:53.027;6226642.0;6104757.0
11:06:53.067;6226804.0;6104969.0
11:06:53.107;6226571.0;6104272.0
11:06:53.147;6226049.0;6104155.0
11:06:53.187;6226642.0;6103905.0
11:06:53.227;6226277.0;6103978.0
11:06:53.267;6225834.0;6103716.0
11:06:53.307;6233350.0;6113772.0
11:06:53.347;6225000.0;6102216.0
11:06:53.387;6225022.0;6101048.0
11:06:53.427;6225288.0;6101258.0
11:06:53.467;6224972.0;6100515.0
11:06:53.507;6225257.0;6100682.0
11:06:53.547;6225136.0;6101626.0
11:06:53.587;6225286.0;6102584.0
11:06:53.627;6225105.0;6102275.0
11:06:53.667;6225342.0;6101684.0
11:06:53.707;6225117.0;6101515.0
11:06:53.747;6230402.0;6107529.0
11:06:53.787;6223788.0;6100603.0
11:06:53.827;6224509.0;6099535.0
11:06:53.867;6224420.0;6099283.0
11:06:53.907;6224023.0;6098619.0
11:06:53.947;6224098.0;6099462.0
11:06:53.987;6224266.0;6101259.0
11:06:54.027;6224028.0;6100736.0
11:06:54.067;6224349.0;6100018.0
11:06:54.107;6229329.0;6111101.0
11:06:54.147;6222591.0;6100562.0
11:06:54.187;6223180.0;6098531.0
11:06:54.227;6223442.0;6097849.0
11:06:54.267;6222836.0;6098306.0
11:06:54.307;6223010.0;6098754.0
11:06:54.347;6223128.0;6100363.0
11:06:54.387;6223105.0;6100436.0
11:06:54.427;6222954.0;6100553.0
11:06:54.467;6226532.0;6112097.0
11:06:54.507;6221333.0;6102811.0
11:06:54.547;6222075.0;6098083.0
11:06:54.587;6222203.0;6098002.0
11:06:54.627;6221773.0;6097318.0
11:06:54.667;6221408.0;6097446.0
11:06:54.707;6222332.0;6099961.0
11:06:54.747;6222174.0;6100600.0
11:06:54.787;6221328.0;6099929.0
11:06:54.827;6221501.0;6099853.0
11:06:54.867;6221717.0;6100125.0
11:06:54.907;6221899.0;6099715.0
11:06:54.947;6221021.0;6099843.0
11:06:54.987;6220711.0;6099833.0
11:06:55.027;6221243.0;6100122.0
11:06:55.067;6220977.0;6099615.0
11:06:55.394;6220788.0;6099770.0
11:06:55.434;6218756.0;6097721.0
11:06:55.474;6219252.0;6098594.0
11:06:55.514;6219559.0;6099598.0
11:06:55.554;6219462.0;6099655.0
11:06:55.594;6219364.0;6103632.0
11:06:55.634;6218525.0;6102804.0
11:06:55.674;6218573.0;6097796.0
11:06:55.714;6218240.0;6097079.0
11:06:55.754;6218149.0;6096770.0
11:06:55.794;6218221.0;6097471.0
11:06:55.834;6218291.0;6098825.0
11:06:55.874;6218339.0;6099757.0
11:06:55.914;6218278.0;6099575.0
11:06:55.954;6217942.0;6099754.0
11:06:55.994;6217828.0;6099699.0
11:06:56.034;6217706.0;6099780.0
11:06:56.074;6217625.0;6099758.0
11:06:56.114;6217430.0;6099798.0
11:06:56.154;6224499.0;6110797.0
11:06:56.194;6215526.0;6099964.0
11:06:56.234;6215802.0;6098132.0
11:06:56.274;6216089.0;6097572.0
11:06:56.314;6216231.0;6096586.0
11:06:56.354;6215879.0;6096845.0
11:06:56.394;6215784.0;6099165.0
11:06:56.434;6216032.0;6099613.0
11:06:56.474;6216040.0;6098621.0
11:06:56.514;6215850.0;6098377.0
11:06:56.554;6215249.0;6099078.0
11:06:56.594;6215093.0;6098552.0
11:06:56.634;6214430.0;6097880.0
11:06:56.674;6214753.0;6097472.0
11:06:56.714;6214370.0;6098195.0
11:06:56.754;6218462.0;6109480.0
11:06:56.794;6213571.0;6100690.0
11:06:56.834;6213462.0;6095984.0
11:06:56.874;6213098.0;6095895.0
11:06:56.914;6213447.0;6095850.0
11:06:56.954;6212500.0;6095506.0
11:06:56.994;6212483.0;6096684.0
11:06:57.034;6212930.0;6097817.0
11:06:57.074;6212912.0;6097479.0
11:06:57.114;6212025.0;6096878.0
11:06:57.154;6212217.0;6096435.0
11:06:57.194;6212181.0;6097333.0
11:06:57.234;6211763.0;6097079.0
11:06:57.274;6211555.0;6096358.0
11:06:57.314;6211630.0;6096035.0
11:06:57.354;6216971.0;6109183.0
11:06:57.394;6210011.0;6099402.0
11:06:57.434;6210905.0;6094814.0
11:06:57.474;6210256.0;6093859.0
11:06:57.514;6210033.0;6094073.0
11:06:57.554;6210400.0;6094282.0
11:06:57.594;6210573.0;6095659.0
11:06:57.634;6211080.0;6096681.0
11:06:57.674;6214963.0;6099831.0
11:06:57.714;6209179.0;6095397.0
11:06:57.754;6209942.0;6094564.0
11:06:57.794;6210235.0;6093742.0
11:06:57.834;6209854.0;6093299.0
11:06:57.874;6209839.0;6094456.0
11:06:57.914;6209997.0;6095925.0
11:06:57.954;6210173.0;6095815.0
11:06:57.994;6210351.0;6101101.0
11:06:58.034;6210796.0;6100057.0
11:06:58.074;6209290.0;6094266.0
11:06:58.114;6209134.0;6093464.0
11:06:58.154;6209004.0;6093520.0
11:06:58.194;6208813.0;6093544.0
11:06:58.234;6209317.0;6094963.0
11:06:58.274;6209662.0;6096145.0
11:06:58.314;6208936.0;6096252.0
11:06:58.354;6209469.0;6096092.0
11:06:58.394;6209255.0;6095908.0
11:06:58.434;6208769.0;6097331.0
11:06:58.474;6211220.0;6099701.0
11:06:58.514;6208445.0;6094369.0
11:06:58.554;6208216.0;6093597.0
11:06:58.594;6208019.0;6093058.0
11:06:58.634;6207927.0;6092933.0
11:06:58.674;6207963.0;6094177.0
11:06:58.714;6207848.0;6095759.0
11:06:58.754;6208154.0;6095106.0
11:06:58.794;6208035.0;6095152.0
11:06:58.834;6207814.0;6095222.0
11:06:58.874;6207606.0;6095463.0
11:06:58.914;6207863.0;6095227.0
11:06:58.954;6207397.0;6094858.0
11:06:58.994;6207470.0;6095049.0
11:06:59.034;6207435.0;6095486.0
11:06:59.074;6207417.0;6094929.0
11:06:59.114;6208286.0;6101891.0
11:06:59.154;6208718.0;6097962.0
11:06:59.194;6206451.0;6093434.0
11:06:59.234;6206152.0;6092658.0
11:06:59.274;6205850.0;6092431.0
11:06:59.314;6205988.0;6092722.0
11:06:59.354;6206044.0;6093281.0
11:07:00.927;6206302.0;6094548.0
11:07:00.967;6209734.0;6099794.0
11:07:01.007;6204924.0;6092997.0
11:07:01.047;6204726.0;6092982.0
11:07:01.087;6205228.0;6092672.0
11:07:01.127;6205187.0;6092028.0
11:07:01.167;6205027.0;6093078.0
11:07:01.207;6204880.0;6095080.0
11:07:01.247;6205347.0;6094981.0
11:07:01.287;6204931.0;6094097.0
11:07:01.327;6204652.0;6094159.0
11:07:01.367;6204681.0;6094977.0
11:07:01.407;6205044.0;6094437.0
11:07:01.447;6204657.0;6093864.0
11:07:01.487;6204152.0;6093634.0
11:07:01.527;6204642.0;6095132.0
11:07:01.567;6204513.0;6094749.0
11:07:01.607;6212018.0;6104767.0
11:07:01.647;6202441.0;6094085.0
11:07:01.687;6203519.0;6092732.0
11:07:01.727;6203523.0;6092264.0
11:07:01.767;6203121.0;6091758.0
11:07:01.807;6203133.0;6091706.0
11:07:01.847;6203397.0;6094156.0
11:07:01.887;6203286.0;6094616.0
11:07:01.927;6203095.0;6094495.0
11:07:01.967;6203287.0;6094042.0
11:07:02.007;6208244.0;6100929.0
11:07:02.047;6202084.0;6094024.0
11:07:02.087;6202252.0;6092456.0
11:07:02.127;6202120.0;6091969.0
11:07:02.167;6202907.0;6091209.0
11:07:02.207;6202131.0;6092256.0
11:07:02.247;6202040.0;6094055.0
11:07:02.287;6202050.0;6094319.0
11:07:02.327;6202952.0;6094915.0
11:07:02.367;6210386.0;6106629.0
11:07:02.407;6200820.0;6094981.0
11:07:02.447;6201512.0;6092553.0
11:07:02.487;6202070.0;6092742.0
11:07:02.527;6201623.0;6092726.0
11:07:02.567;6201004.0;6092379.0
11:07:02.607;6201281.0;6094165.0
11:07:02.647;6202232.0;6095443.0
11:07:02.687;6201931.0;6095658.0
11:07:02.727;6207325.0;6107367.0
11:07:02.767;6199971.0;6095916.0
11:07:02.807;6200604.0;6093081.0
11:07:02.847;6200531.0;6093724.0
11:07:02.887;6201150.0;6093499.0
11:07:02.927;6200657.0;6093013.0
11:07:02.967;6200953.0;6094668.0
11:07:03.007;6200551.0;6095553.0
11:07:03.047;6201004.0;6096474.0
11:07:03.087;6201328.0;6095572.0
11:07:03.127;6200705.0;6095257.0
11:07:03.167;6200348.0;6095224.0
11:07:03.207;6208531.0;6108992.0
11:07:03.247;6199169.0;6096909.0
11:07:03.287;6200032.0;6093395.0
11:07:03.327;6199338.0;6093285.0
11:07:03.367;6198854.0;6093051.0
11:07:03.407;6199707.0;6094230.0
11:07:03.447;6200093.0;6095660.0
11:07:03.487;6199899.0;6096348.0
11:07:03.527;6199469.0;6096388.0
11:07:03.567;6200688.0;6101200.0
11:07:03.607;6199643.0;6098805.0
11:07:03.647;6198469.0;6094278.0
11:07:03.687;6198723.0;6094505.0
11:07:03.727;6199166.0;6093698.0
11:07:03.767;6199027.0;6093420.0
11:07:03.807;6198528.0;6095331.0
11:07:03.847;6199023.0;6097169.0
11:07:03.887;6198760.0;6096274.0
11:07:03.927;6198840.0;6095500.0
11:07:03.967;6198003.0;6096272.0
11:07:04.007;6198599.0;6096731.0
11:07:04.047;6198393.0;6096214.0
11:07:04.087;6197927.0;6095840.0
11:07:04.127;6197798.0;6096211.0
11:07:04.167;6198933.0;6101097.0
11:07:04.207;6200426.0;6099861.0
11:07:04.247;6196773.0;6094806.0
11:07:04.287;6196750.0;6094678.0
11:07:04.327;6197264.0;6095323.0
11:07:04.367;6197603.0;6094612.0
11:07:04.407;6197174.0;6095295.0
11:07:04.447;6197187.0;6097013.0
11:07:04.487;6197472.0;6097423.0
11:07:04.527;6197732.0;6096835.0
11:07:04.567;6197099.0;6097194.0
11:07:04.607;6197236.0;6097169.0
11:07:04.647;6196905.0;6097309.0
11:07:04.687;6196846.0;6097482.0
11:07:04.727;6197101.0;6097653.0
11:07:04.767;6197121.0;6097448.0
11:07:04.807;6196824.0;6097612.0
11:07:04.847;6200572.0;6102721.0
11:07:04.887;6195732.0;6097096.0
11:07:05.063;6196290.0;6096502.0
11:07:05.103;6195013.0;6101456.0
11:07:05.143;6195448.0;6101512.0
11:07:05.183;6195361.0;6100838.0
11:07:05.223;6201419.0;6113453.0
11:07:05.263;6193047.0;6103613.0
11:07:05.303;6194262.0;6099702.0
11:07:05.343;6194077.0;6098732.0
11:07:05.383;6193520.0;6097780.0
11:07:05.423;6194267.0;6098734.0
11:07:05.463;6194142.0;6101057.0
11:07:05.503;6194124.0;6101314.0
11:07:05.543;6194014.0;6100752.0
11:07:05.583;6193796.0;6100586.0
11:07:05.623;6193941.0;6100624.0
11:07:05.663;6193307.0;6101062.0
11:07:05.703;6193736.0;6101191.0
11:07:05.743;6193303.0;6100798.0
11:07:05.783;6193382.0;6100595.0
11:07:05.823;6193326.0;6101020.0
11:07:05.863;6193337.0;6100956.0
11:07:05.903;6198040.0;6107159.0
11:07:05.943;6191527.0;6099483.0
11:07:05.983;6192547.0;6099035.0
11:07:06.023;6192201.0;6098362.0
11:07:06.063;6191678.0;6098115.0
11:07:06.103;6192110.0;6098923.0
11:07:06.143;6192390.0;6100498.0
11:07:06.183;6192141.0;6100626.0
11:07:06.223;6192092.0;6100670.0
11:07:06.263;6192205.0;6100610.0
11:07:06.303;6191862.0;6101033.0
11:07:06.343;6191939.0;6102070.0
11:07:06.383;6194359.0;6104547.0
11:07:06.423;6190662.0;6098702.0
11:07:06.463;6190942.0;6099363.0
11:07:06.503;6191190.0;6098915.0
11:07:06.543;6191147.0;6098308.0
11:07:06.583;6190994.0;6099208.0
11:07:06.623;6190972.0;6101310.0
11:07:06.663;6190567.0;6101124.0
11:07:06.703;6190541.0;6100776.0
11:07:06.743;6192637.0;6109419.0
11:07:06.783;6189230.0;6104114.0
11:07:06.823;6189651.0;6099213.0
11:07:06.863;6189911.0;6099058.0
11:07:06.903;6189790.0;6097930.0
11:07:06.943;6189565.0;6097739.0
11:07:06.983;6189283.0;6100063.0
11:07:07.023;6189739.0;6101601.0
11:07:07.063;6189662.0;6100836.0
11:07:07.103;6189454.0;6100070.0
11:07:07.143;6189195.0;6101197.0
11:07:07.183;6189356.0;6101533.0
11:07:07.223;6189211.0;6101073.0
11:07:07.263;6188396.0;6100429.0
11:07:07.303;6188483.0;6100720.0
11:07:07.343;6188768.0;6101097.0
11:07:07.383;6188444.0;6101104.0
11:07:07.423;6187943.0;6100692.0
11:07:07.463;6192245.0;6105767.0
11:07:07.503;6187367.0;6099923.0
11:07:07.543;6187756.0;6099157.0
11:07:07.583;6187440.0;6098543.0
11:07:07.623;6187031.0;6098337.0
11:07:07.663;6187302.0;6099341.0
11:07:07.703;6187655.0;6100815.0
11:07:07.743;6187592.0;6101104.0
11:07:07.783;6187446.0;6101396.0
11:07:07.823;6192183.0;6106872.0
11:07:07.863;6186500.0;6100394.0
11:07:07.903;6186831.0;6099117.0
11:07:07.943;6186701.0;6098911.0
11:07:07.983;6187141.0;6099051.0
11:07:08.023;6186723.0;6099813.0
11:07:08.063;6186984.0;6101534.0
11:07:08.103;6186745.0;6101311.0
11:07:08.143;6186670.0;6101149.0
11:07:08.183;6186606.0;6101938.0
11:07:08.223;6186725.0;6102045.0
11:07:08.263;6186304.0;6101211.0
11:07:08.303;6186165.0;6101239.0
11:07:08.343;6186227.0;6101375.0
11:07:08.383;6185528.0;6101483.0
11:07:08.423;6185554.0;6101576.0
11:07:08.463;6185850.0;6101543.0
11:07:08.503;6192685.0;6112923.0
11:07:08.543;6184341.0;6102036.0
11:07:08.583;6185040.0;6100271.0
11:07:08.623;6184667.0;6099804.0
11:07:08.663;6184747.0;6099406.0
11:07:08.703;6184886.0;6099335.0
11:07:08.743;6185076.0;6101370.0
11:07:08.783;6184731.0;6102437.0
11:07:08.823;6184867.0;6102372.0
11:07:08.863;6184796.0;6101542.0
11:07:08.903;6184997.0;6101897.0
11:07:08.943;6184752.0;6102673.0
11:07:08.983;6184626.0;6102847.0
11:07:09.023;6184611.0;6102628.0
11:07:09.322;6184454.0;6102284.0
11:07:09.362;6184231.0;6103709.0
11:07:09.402;6184277.0;6104358.0
11:07:09.442;6188293.0;6107851.0
11:07:09.482;6184074.0;6102816.0
11:07:09.522;6184350.0;6102117.0
11:07:09.562;6184289.0;6102441.0
11:07:09.602;6184301.0;6102106.0
11:07:09.642;6184268.0;6102420.0
11:07:09.682;6184691.0;6104253.0
11:07:09.722;6184943.0;6105067.0
11:07:09.762;6184706.0;6104883.0
11:07:09.802;6185239.0;6105332.0
11:07:09.842;6190023.0;6110433.0
11:07:09.882;6183997.0;6104501.0
11:07:09.922;6184649.0;6103428.0
11:07:09.962;6185037.0;6102910.0
11:07:10.002;6185150.0;6102520.0
11:07:10.042;6184925.0;6103938.0
11:07:10.082;6185333.0;6105411.0
11:07:10.122;6185447.0;6105801.0
11:07:10.162;6185482.0;6105684.0
11:07:10.202;6186024.0;6106097.0
11:07:10.242;6192090.0;6117408.0
11:07:10.282;6184319.0;6105692.0
11:07:10.322;6185167.0;6103734.0
11:07:10.362;6185204.0;6103360.0
11:07:10.402;6185170.0;6103206.0
11:07:10.442;6184851.0;6103789.0
11:07:10.482;6185385.0;6105441.0
11:07:10.522;6185335.0;6105662.0
11:07:10.562;6185058.0;6105536.0
11:07:10.602;6185626.0;6113824.0
11:07:10.642;6185097.0;6107828.0
11:07:10.682;6184602.0;6103138.0
11:07:10.722;6184080.0;6102823.0
11:07:10.762;6183854.0;6101785.0
11:07:10.802;6184016.0;6101954.0
11:07:10.842;6184167.0;6102902.0
11:07:10.882;6184119.0;6104336.0
11:07:10.922;6184303.0;6104103.0
11:07:10.962;6184269.0;6104163.0
11:07:11.002;6184426.0;6103528.0
11:07:11.042;6188913.0;6116257.0
11:07:11.082;6182997.0;6105172.0
11:07:11.122;6183283.0;6101137.0
11:07:11.162;6183120.0;6100365.0
11:07:11.202;6182824.0;6100100.0
11:07:11.242;6182974.0;6100717.0
11:07:11.282;6183858.0;6102615.0
11:07:11.322;6184066.0;6103259.0
11:07:11.362;6183762.0;6103210.0
11:07:11.402;6189700.0;6113317.0
11:07:11.442;6182575.0;6104243.0
11:07:11.482;6183888.0;6100944.0
11:07:11.522;6183633.0;6101012.0
11:07:11.562;6184025.0;6100926.0
11:07:11.602;6183989.0;6101439.0
11:07:11.642;6184318.0;6102954.0
11:07:11.682;6183678.0;6103018.0
11:07:11.722;6183503.0;6103000.0
11:07:11.762;6183599.0;6102842.0
11:07:11.802;6183208.0;6102526.0
11:07:11.842;6183021.0;6102230.0
11:07:11.882;6183323.0;6102271.0
11:07:11.922;6183002.0;6102195.0
11:07:11.962;6188656.0;6114296.0
11:07:12.002;6181868.0;6101744.0
11:07:12.042;6182368.0;6100040.0
11:07:12.082;6182005.0;6099551.0
11:07:12.122;6182759.0;6099669.0
11:07:12.162;6181864.0;6099805.0
11:07:12.202;6182134.0;6101279.0
11:07:12.242;6182520.0;6101314.0
11:07:12.282;6182425.0;6101316.0
11:07:12.322;6181827.0;6101276.0
11:07:12.362;6181661.0;6101616.0
11:07:12.402;6182312.0;6102086.0
11:07:12.442;6187174.0;6111064.0
11:07:12.482;6181299.0;6099931.0
11:07:12.522;6181561.0;6099697.0
11:07:12.562;6181633.0;6099474.0
11:07:12.602;6181432.0;6098829.0
11:07:12.642;6181468.0;6099170.0
11:07:12.682;6182109.0;6101055.0
11:07:12.722;6181638.0;6101408.0
11:07:12.762;6182002.0;6101975.0
11:07:12.802;6182099.0;6102110.0
11:07:12.842;6182070.0;6101439.0
11:07:12.882;6181852.0;6101827.0
11:07:12.922;6185525.0;6113275.0
11:07:12.962;6182029.0;6104739.0
11:07:13.002;6181634.0;6100069.0
11:07:13.042;6181694.0;6099964.0
11:07:13.082;6181686.0;6099610.0
11:07:13.122;6181650.0;6099654.0
11:07:13.162;6182439.0;6101843.0
11:07:13.202;6182454.0;6102854.0
11:07:13.242;6182207.0;6102647.0
11:07:13.282;6181877.0;6101862.0
11:07:13.623;6182531.0;6102588.0
11:07:13.663;6181820.0;6099996.0
11:07:13.703;6181869.0;6100248.0
11:07:13.743;6181557.0;6101342.0
11:07:13.783;6182108.0;6102387.0
11:07:13.823;6181961.0;6102406.0
11:07:13.863;6181894.0;6102800.0
11:07:13.903;6181872.0;6103137.0
11:07:13.943;6186742.0;6115795.0
11:07:13.983;6180843.0;6105159.0
11:07:14.023;6181685.0;6100759.0
11:07:14.063;6181667.0;6100828.0
11:07:14.103;6181369.0;6100394.0
11:07:14.143;6181264.0;6100705.0
11:07:14.183;6181518.0;6102253.0
11:07:14.223;6181763.0;6103501.0
11:07:14.263;6182232.0;6103193.0
11:07:14.303;6181334.0;6102944.0
11:07:14.343;6181217.0;6102968.0
11:07:14.383;6187429.0;6115838.0
11:07:14.423;6180739.0;6105962.0
11:07:14.463;6180732.0;6101086.0
11:07:14.503;6180730.0;6100764.0
11:07:14.543;6181059.0;6101191.0
11:07:14.583;6181120.0;6101228.0
11:07:14.623;6181544.0;6102611.0
11:07:14.663;6181063.0;6103070.0
11:07:14.703;6180924.0;6103246.0
11:07:14.743;6181041.0;6103245.0
11:07:14.783;6181813.0;6102942.0
11:07:14.823;6181286.0;6102948.0
11:07:14.863;6188297.0;6114260.0
11:07:14.903;6179832.0;6102794.0
11:07:14.943;6180842.0;6101298.0
11:07:14.983;6180633.0;6100811.0
11:07:15.023;6180323.0;6100927.0
11:07:15.063;6180402.0;6101110.0
11:07:15.103;6180538.0;6102999.0
11:07:15.143;6180972.0;6103451.0
11:07:15.183;6184498.0;6114142.0
11:07:15.223;6178841.0;6104905.0
11:07:15.263;6180278.0;6101742.0
11:07:15.303;6180730.0;6100849.0
11:07:15.343;6180283.0;6100512.0
11:07:15.383;6180184.0;6101256.0
11:07:15.423;6180483.0;6102348.0
11:07:15.463;6180601.0;6102329.0
11:07:15.503;6180626.0;6101931.0
11:07:15.543;6185102.0;6108629.0
11:07:15.583;6179715.0;6101314.0
11:07:15.623;6180003.0;6099606.0
11:07:15.663;6180105.0;6098922.0
11:07:15.703;6179685.0;6099673.0
11:07:15.743;6179648.0;6100791.0
11:07:15.783;6179924.0;6101427.0
11:07:15.823;6180629.0;6101486.0
11:07:15.863;6180476.0;6102407.0
11:07:15.903;6184940.0;6109479.0
11:07:15.943;6179479.0;6100367.0
11:07:15.983;6179495.0;6098831.0
11:07:16.023;6179387.0;6098258.0
11:07:16.063;6179010.0;6098967.0
11:07:16.103;6179406.0;6099733.0
11:07:16.143;6179567.0;6100437.0
11:07:16.183;6179680.0;6100903.0
11:07:16.223;6181682.0;6111171.0
11:07:16.263;6178008.0;6103630.0
11:07:16.303;6178958.0;6098637.0
11:07:16.343;6179398.0;6098303.0
11:07:16.383;6178635.0;6098220.0
11:07:16.423;6178742.0;6098772.0
11:07:16.463;6179193.0;6099926.0
11:07:16.503;6178963.0;6100213.0
11:07:16.543;6179286.0;6109168.0
11:07:16.583;6178963.0;6103299.0
11:07:16.623;6178560.0;6098481.0
11:07:16.663;6178500.0;6097556.0
11:07:16.703;6178869.0;6097635.0
11:07:16.743;6178273.0;6098210.0
11:07:16.783;6178393.0;6100206.0
11:07:16.823;6178963.0;6100569.0
11:07:16.863;6178702.0;6100080.0
11:07:16.903;6178866.0;6101410.0
11:07:16.943;6181935.0;6103978.0
11:07:16.983;6177512.0;6098548.0
11:07:17.023;6178029.0;6097701.0
11:07:17.063;6177754.0;6097241.0
11:07:17.103;6177727.0;6097391.0
11:07:17.143;6177843.0;6098393.0
11:07:17.183;6178223.0;6099974.0
11:07:17.223;6178105.0;6100061.0
11:07:17.263;6178060.0;6099903.0
11:07:17.303;6177953.0;6100417.0
11:07:17.343;6177968.0;6100538.0
11:07:17.383;6177658.0;6099577.0
11:07:17.423;6183440.0;6106745.0
11:07:17.463;6176662.0;6098976.0
11:07:17.503;6177309.0;6098559.0
11:07:17.543;6176753.0;6098223.0
11:07:17.583;6176952.0;6097234.0
11:07:35.949;6149211.0;6080336.0
11:07:35.989;6149087.0;6074356.0
11:07:36.029;6148698.0;6073717.0
11:07:36.069;6149090.0;6074277.0
11:07:36.109;6148784.0;6076122.0
11:07:36.149;6149156.0;6077211.0
11:07:36.189;6149254.0;6076601.0
11:07:36.229;6149176.0;6075958.0
11:07:36.269;6148716.0;6076425.0
11:07:36.309;6149617.0;6076792.0
11:07:36.349;6149080.0;6076654.0
11:07:36.389;6148920.0;6076041.0
11:07:36.429;6156897.0;6090015.0
11:07:36.469;6147762.0;6077790.0
11:07:36.509;6149043.0;6074671.0
11:07:36.549;6148390.0;6074348.0
11:07:36.589;6147963.0;6074601.0
11:07:36.629;6148813.0;6074911.0
11:07:36.669;6149149.0;6076132.0
11:07:36.709;6149358.0;6076545.0
11:07:36.749;6148717.0;6077190.0
11:07:36.789;6148989.0;6077118.0
11:07:36.829;6148935.0;6076146.0
11:07:36.869;6148947.0;6075658.0
11:07:36.909;6150596.0;6087252.0
11:07:36.949;6149155.0;6079850.0
11:07:36.989;6148358.0;6074837.0
11:07:37.029;6147995.0;6073670.0
11:07:37.069;6148480.0;6074874.0
11:07:37.109;6148376.0;6074847.0
11:07:37.149;6148423.0;6075618.0
11:07:37.189;6148896.0;6076688.0
11:07:37.229;6148896.0;6076778.0
11:07:37.269;6148723.0;6076544.0
11:07:37.309;6148367.0;6076187.0
11:07:37.349;6149059.0;6076781.0
11:07:37.389;6148598.0;6076506.0
11:07:37.429;6148373.0;6075984.0
11:07:37.469;6147744.0;6075813.0
11:07:37.509;6147868.0;6075487.0
11:07:37.549;6153843.0;6083917.0
11:07:37.589;6147504.0;6075798.0
11:07:37.629;6147721.0;6074547.0
11:07:37.669;6147832.0;6073844.0
11:07:37.709;6147051.0;6073647.0
11:07:37.749;6147739.0;6075076.0
11:07:37.789;6148042.0;6076427.0
11:07:37.829;6150977.0;6085937.0
11:07:37.869;6145377.0;6077258.0
11:07:37.909;6147559.0;6075321.0
11:07:37.949;6147642.0;6074325.0
11:07:37.989;6147833.0;6073470.0
11:07:38.029;6147054.0;6073980.0
11:07:38.069;6147913.0;6075903.0
11:07:38.109;6148010.0;6076720.0
11:07:38.149;6147788.0;6075994.0
11:07:38.189;6147519.0;6076899.0
11:07:38.229;6147998.0;6076650.0
11:07:38.269;6147530.0;6076136.0
11:07:38.309;6147453.0;6076330.0
11:07:38.349;6147811.0;6076897.0
11:07:38.389;6154271.0;6089463.0
11:07:38.429;6145858.0;6077615.0
11:07:38.469;6147219.0;6074837.0
11:07:38.509;6146911.0;6074618.0
11:07:38.549;6146870.0;6074153.0
11:07:38.589;6146906.0;6074287.0
11:07:38.629;6147483.0;6075361.0
11:07:38.669;6147219.0;6076248.0
11:07:38.709;6147026.0;6076136.0
11:07:38.749;6147369.0;6077349.0
11:07:38.789;6147451.0;6076532.0
11:07:38.829;6146718.0;6075971.0
11:07:38.869;6146481.0;6076005.0
11:07:38.909;6147030.0;6076992.0
11:07:38.949;6147897.0;6083068.0
11:07:38.989;6148588.0;6078531.0
11:07:39.029;6145988.0;6074709.0
11:07:39.069;6145649.0;6074011.0
11:07:39.109;6146297.0;6074587.0
11:07:39.149;6146272.0;6074613.0
11:07:39.189;6146083.0;6075329.0
11:07:39.229;6146106.0;6076411.0
11:07:39.269;6146426.0;6076787.0
11:07:39.309;6146694.0;6076571.0
11:07:39.349;6146692.0;6076648.0
11:07:39.389;6147723.0;6084974.0
11:07:39.429;6145327.0;6080221.0
11:07:39.469;6145892.0;6075134.0
11:07:39.509;6146057.0;6074477.0
11:07:39.549;6145461.0;6074113.0
11:07:39.589;6145306.0;6074063.0
11:07:39.629;6145996.0;6075961.0
11:07:39.669;6146185.0;6076778.0
11:07:39.709;6145762.0;6076660.0
11:07:39.749;6145693.0;6077087.0
11:07:39.789;6149460.0;6081074.0
11:07:39.829;6144966.0;6075390.0
11:07:39.869;6145110.0;6075054.0
11:07:39.909;6144969.0;6074539.0
11:07:44.551;6144656.0;6073680.0
11:07:44.591;6144934.0;6079066.0
11:07:44.631;6148317.0;6079789.0
11:07:44.671;6143215.0;6074194.0
11:07:44.711;6144283.0;6075440.0
11:07:44.751;6144472.0;6074812.0
11:07:44.791;6144389.0;6074191.0
11:07:44.831;6144121.0;6074896.0
11:07:44.871;6145201.0;6077422.0
11:07:44.911;6144716.0;6077411.0
11:07:44.951;6144461.0;6076543.0
11:07:44.991;6143885.0;6075986.0
11:07:45.031;6150958.0;6089040.0
11:07:45.071;6142921.0;6078662.0
11:07:45.111;6144000.0;6074868.0
11:07:45.151;6143870.0;6074491.0
11:07:45.191;6144339.0;6074172.0
11:07:45.231;6143701.0;6074427.0
11:07:45.271;6143578.0;6075770.0
11:07:45.311;6144330.0;6076680.0
11:07:45.351;6144494.0;6076631.0
11:07:45.391;6144113.0;6076687.0
11:07:45.431;6143474.0;6076290.0
11:07:45.471;6144279.0;6076666.0
11:07:45.511;6145326.0;6084221.0
11:07:45.551;6143359.0;6079301.0
11:07:45.591;6142946.0;6074722.0
11:07:45.631;6143618.0;6074854.0
11:07:45.671;6143396.0;6073955.0
11:07:45.711;6143384.0;6074299.0
11:07:45.751;6143175.0;6075414.0
11:07:45.791;6143577.0;6076831.0
11:07:45.831;6143602.0;6075722.0
11:07:45.871;6143667.0;6075759.0
11:07:45.911;6143089.0;6075785.0
11:07:45.951;6146994.0;6087236.0
11:07:45.991;6142280.0;6078503.0
11:07:46.031;6143299.0;6073767.0
11:07:46.071;6142783.0;6073380.0
11:07:46.111;6142727.0;6073725.0
11:07:46.151;6143123.0;6073185.0
11:07:46.191;6143241.0;6074199.0
11:07:46.231;6142645.0;6075065.0
11:07:46.271;6142837.0;6075661.0
11:07:46.311;6143248.0;6075128.0
11:07:46.351;6143216.0;6078509.0
11:07:46.391;6145561.0;6077867.0
11:07:46.431;6142078.0;6073910.0
11:07:46.471;6142772.0;6072700.0
11:07:46.511;6142280.0;6071849.0
11:07:46.551;6142262.0;6071661.0
11:07:46.591;6141719.0;6073287.0
11:07:46.631;6142755.0;6075005.0
11:07:46.671;6142632.0;6074086.0
11:07:46.711;6142688.0;6074210.0
11:07:46.751;6141986.0;6074115.0
11:07:46.791;6142808.0;6074955.0
11:07:46.831;6142461.0;6073757.0
11:07:46.871;6142504.0;6073654.0
11:07:46.911;6141618.0;6072976.0
11:07:46.951;6148243.0;6081126.0
11:07:46.991;6141233.0;6072424.0
11:07:47.031;6141561.0;6070784.0
11:07:47.071;6141594.0;6071978.0
11:07:47.111;6141780.0;6071697.0
11:07:47.151;6141652.0;6071238.0
11:07:47.191;6141841.0;6072813.0
11:07:47.231;6142121.0;6073708.0
11:07:47.271;6141975.0;6073563.0
11:07:47.311;6141734.0;6073186.0
11:07:47.351;6142519.0;6072924.0
11:07:47.391;6146608.0;6077542.0
11:07:47.431;6141106.0;6071741.0
11:07:47.471;6141589.0;6071432.0
11:07:47.511;6141774.0;6070797.0
11:07:47.551;6142147.0;6070436.0
11:07:47.591;6141789.0;6071938.0
11:07:47.631;6142442.0;6073868.0
11:07:47.671;6142463.0;6073140.0
11:07:47.711;6142300.0;6072406.0
11:07:47.751;6142702.0;6072640.0
11:07:47.791;6142694.0;6073859.0
11:07:47.831;6142656.0;6073358.0
11:07:47.871;6142546.0;6072740.0
11:07:47.911;6143341.0;6079341.0
11:07:47.951;6143357.0;6076271.0
11:07:47.991;6142333.0;6071904.0
11:07:48.031;6142354.0;6070818.0
11:07:48.071;6142755.0;6069976.0
11:07:48.111;6142652.0;6070841.0
11:07:48.151;6142913.0;6072006.0
11:07:48.191;6143179.0;6072317.0
11:07:48.231;6143618.0;6072610.0
11:07:48.271;6143160.0;6072736.0
11:07:48.311;6143263.0;6071936.0
11:07:48.351;6143142.0;6071157.0
11:07:48.391;6143321.0;6071699.0
11:07:48.431;6143428.0;6072558.0
11:07:48.471;6143610.0;6071881.0
11:07:48.511;6143518.0;6071480.0
11:07:48.851;6147984.0;6083050.0
11:07:48.891;6142414.0;6066837.0
11:07:48.931;6148176.0;6076431.0
11:07:48.971;6140605.0;6065734.0
11:07:49.011;6141888.0;6064749.0
11:07:49.051;6141551.0;6064192.0
11:07:49.091;6141760.0;6064564.0
11:07:49.131;6141701.0;6065577.0
11:07:49.171;6142009.0;6067111.0
11:07:49.211;6141695.0;6066533.0
11:07:49.251;6142117.0;6066811.0
11:07:49.291;6141934.0;6067323.0
11:07:49.331;6141856.0;6066759.0
11:07:49.371;6141803.0;6066551.0
11:07:49.411;6141975.0;6066814.0
11:07:49.451;6141647.0;6067182.0
11:07:49.491;6141715.0;6067493.0
11:07:49.531;6146438.0;6071500.0
11:07:49.571;6140826.0;6065230.0
11:07:49.611;6141121.0;6065297.0
11:07:49.651;6141577.0;6065328.0
11:07:49.691;6141680.0;6064419.0
11:07:49.731;6141559.0;6065087.0
11:07:49.771;6141572.0;6067555.0
11:07:49.811;6141907.0;6067668.0
11:07:49.851;6141670.0;6066888.0
11:07:49.891;6141914.0;6067240.0
11:07:49.931;6143649.0;6077105.0
11:07:49.971;6140496.0;6070683.0
11:07:50.011;6140877.0;6065944.0
11:07:50.051;6141357.0;6065686.0
11:07:50.091;6140962.0;6065533.0
11:07:50.131;6141045.0;6065629.0
11:07:50.171;6141305.0;6067550.0
11:07:50.211;6141490.0;6068634.0
11:07:50.251;6141255.0;6068428.0
11:07:50.291;6141675.0;6068716.0
11:07:50.331;6141442.0;6068543.0
11:07:50.371;6141117.0;6068587.0
11:07:50.411;6140790.0;6069708.0
11:07:50.451;6144999.0;6072646.0
11:07:50.491;6140571.0;6067244.0
11:07:50.531;6140820.0;6066817.0
11:07:50.571;6140393.0;6066511.0
11:07:50.611;6140964.0;6066774.0
11:07:50.651;6140746.0;6067812.0
11:07:50.691;6140775.0;6069324.0
11:07:50.731;6140973.0;6069790.0
11:07:50.771;6141532.0;6069253.0
11:07:50.811;6145357.0;6079538.0
11:07:50.851;6139216.0;6072053.0
11:07:50.891;6140652.0;6067919.0
11:07:50.931;6140588.0;6066824.0
11:07:50.971;6140265.0;6066623.0
11:07:51.011;6140543.0;6067646.0
11:07:51.051;6140407.0;6068658.0
11:07:51.091;6140147.0;6069137.0
11:07:51.131;6140478.0;6069056.0
11:07:51.171;6140632.0;6070330.0
11:07:51.211;6143616.0;6073947.0
11:07:51.251;6139358.0;6067573.0
11:07:51.291;6139776.0;6066697.0
11:07:51.331;6139445.0;6067128.0
11:07:51.371;6139121.0;6067016.0
11:07:51.411;6139556.0;6068057.0
11:07:51.451;6140106.0;6069223.0
11:07:51.491;6139871.0;6069903.0
11:07:51.531;6139787.0;6069599.0
11:07:51.571;6139905.0;6069593.0
11:07:51.611;6140283.0;6069285.0
11:07:51.651;6139580.0;6070048.0
11:07:51.691;6139646.0;6070080.0
11:07:51.731;6139720.0;6069477.0
11:07:51.771;6139538.0;6069111.0
11:07:51.811;6139393.0;6070033.0
11:07:51.851;6139511.0;6070107.0
11:07:51.891;6146632.0;6080980.0
11:07:51.931;6137875.0;6070703.0
11:07:51.971;6139329.0;6068255.0
11:07:52.011;6138816.0;6068232.0
11:07:52.051;6138697.0;6068222.0
11:07:52.091;6138658.0;6067617.0
11:07:52.131;6139161.0;6069194.0
11:07:52.171;6139057.0;6070597.0
11:07:52.211;6139315.0;6070568.0
11:07:52.251;6144239.0;6080752.0
11:07:52.291;6137205.0;6071566.0
11:07:52.331;6138913.0;6067571.0
11:07:52.371;6138873.0;6067776.0
11:07:52.411;6138800.0;6067337.0
11:07:52.451;6138941.0;6067666.0
11:07:52.491;6139449.0;6068952.0
11:07:52.531;6139211.0;6069755.0
11:07:52.571;6139915.0;6072252.0
11:07:52.611;6141199.0;6072693.0
11:07:52.651;6138759.0;6067173.0
11:07:52.691;6138914.0;6067026.0
11:07:52.731;6139098.0;6066119.0
11:07:52.771;6139088.0;6065811.0
11:07:52.811;6139163.0;6066371.0
11:07:53.152;6139980.0;6067911.0
11:07:53.192;6139499.0;6063717.0
11:07:53.232;6139624.0;6064620.0
11:07:53.272;6140158.0;6064732.0
11:07:53.312;6139663.0;6065015.0
11:07:53.352;6139685.0;6064544.0
11:07:53.392;6139767.0;6063671.0
11:07:53.432;6139714.0;6062534.0
11:07:53.472;6140004.0;6063403.0
11:07:53.512;6145846.0;6071841.0
11:07:53.552;6138458.0;6061571.0
11:07:53.592;6139456.0;6059504.0
11:07:53.632;6139165.0;6058503.0
11:07:53.672;6139374.0;6059165.0
11:07:53.712;6139462.0;6058923.0
11:07:53.752;6140118.0;6059588.0
11:07:53.792;6140227.0;6059181.0
11:07:53.832;6140047.0;6059026.0
11:07:53.872;6140593.0;6059427.0
11:07:53.912;6140099.0;6058568.0
11:07:53.952;6147914.0;6070605.0
11:07:53.992;6138875.0;6059075.0
11:07:54.032;6139847.0;6055940.0
11:07:54.072;6139689.0;6054998.0
11:07:54.112;6139475.0;6053863.0
11:07:54.152;6139547.0;6054552.0
11:07:54.192;6140446.0;6056500.0
11:07:54.232;6140658.0;6056208.0
11:07:54.272;6140111.0;6055418.0
11:07:54.312;6139875.0;6055161.0
11:07:54.352;6140388.0;6056228.0
11:07:54.392;6140406.0;6055712.0
11:07:54.432;6147303.0;6064903.0
11:07:54.472;6138533.0;6054063.0
11:07:54.512;6139671.0;6053827.0
11:07:54.552;6140164.0;6053088.0
11:07:54.592;6140177.0;6052134.0
11:07:54.632;6139253.0;6052341.0
11:07:54.672;6139890.0;6055193.0
11:07:54.712;6140343.0;6055023.0
11:07:54.752;6139978.0;6053978.0
11:07:54.792;6139360.0;6053622.0
11:07:54.832;6139775.0;6055227.0
11:07:54.872;6140164.0;6055035.0
11:07:54.912;6140037.0;6053928.0
11:07:54.952;6144802.0;6061692.0
11:07:54.992;6138373.0;6054400.0
11:07:55.032;6139441.0;6053321.0
11:07:55.072;6139367.0;6051860.0
11:07:55.112;6138999.0;6051313.0
11:07:55.152;6139043.0;6053705.0
11:07:55.192;6139718.0;6055208.0
11:07:55.232;6139735.0;6054381.0
11:07:55.272;6139527.0;6054204.0
11:07:55.312;6140760.0;6063284.0
11:07:55.352;6138095.0;6057629.0
11:07:55.392;6138793.0;6052568.0
11:07:55.432;6138942.0;6052467.0
11:07:55.472;6139053.0;6052535.0
11:07:55.512;6138988.0;6052239.0
11:07:55.552;6139121.0;6054540.0
11:07:55.592;6139423.0;6055228.0
11:07:55.632;6139042.0;6054987.0
11:07:55.672;6138934.0;6055493.0
11:07:55.712;6139585.0;6060315.0
11:07:55.752;6140531.0;6058463.0
11:07:55.792;6138395.0;6053966.0
11:07:55.832;6138628.0;6053730.0
11:07:55.872;6138426.0;6052638.0
11:07:55.912;6138353.0;6052865.0
11:07:55.952;6138652.0;6054967.0
11:07:55.992;6138742.0;6056263.0
11:07:56.032;6138907.0;6055979.0
11:07:56.072;6139197.0;6056117.0
11:07:56.112;6139042.0;6055632.0
11:07:56.152;6138595.0;6056284.0
11:07:56.192;6138567.0;6055872.0
11:07:56.232;6138642.0;6056952.0
11:07:56.272;6143370.0;6060767.0
11:07:56.312;6137538.0;6054887.0
11:07:56.352;6137899.0;6054432.0
11:07:56.392;6138269.0;6054655.0
11:07:56.432;6138367.0;6054797.0
11:07:56.472;6138522.0;6054933.0
11:07:56.512;6138480.0;6056778.0
11:07:56.552;6138570.0;6056936.0
11:07:56.592;6138737.0;6056831.0
11:07:56.632;6139218.0;6057390.0
11:07:56.672;6138314.0;6057089.0
11:07:56.712;6138168.0;6056643.0
11:07:56.752;6138455.0;6056996.0
11:07:56.792;6138676.0;6057568.0
11:07:56.832;6140984.0;6067100.0
11:07:56.872;6138397.0;6059552.0
11:07:56.912;6137942.0;6055910.0
11:07:56.952;6137985.0;6055604.0
11:07:56.992;6137905.0;6055011.0
11:07:57.032;6137589.0;6055540.0
11:07:57.072;6137773.0;6056628.0
11:07:57.112;6138412.0;6057905.0
11:07:57.454;6138555.0;6057707.0
11:07:57.494;6137605.0;6055411.0
11:07:57.534;6137771.0;6055303.0
11:07:57.574;6137816.0;6056167.0
11:07:57.614;6137998.0;6057675.0
11:07:57.654;6137634.0;6057558.0
11:07:57.694;6137976.0;6057771.0
11:07:57.734;6137888.0;6057648.0
11:07:57.774;6140823.0;6069387.0
11:07:57.814;6136989.0;6060360.0
11:07:57.854;6137738.0;6056236.0
11:07:57.894;6137356.0;6055329.0
11:07:57.934;6137810.0;6055049.0
11:07:57.974;6137270.0;6055597.0
11:07:58.014;6137755.0;6057507.0
11:07:58.054;6138111.0;6057794.0
11:07:58.094;6137881.0;6057608.0
11:07:58.134;6137548.0;6058318.0
11:07:58.174;6137927.0;6058513.0
11:07:58.214;6138247.0;6058008.0
11:07:58.254;6137731.0;6057575.0
11:07:58.294;6137714.0;6058636.0
11:07:58.334;6137759.0;6058934.0
11:07:58.374;6137874.0;6057979.0
11:07:58.414;6137693.0;6057493.0
11:07:58.454;6137796.0;6058868.0
11:07:58.494;6137941.0;6058984.0
11:07:58.534;6144211.0;6071148.0
11:07:58.574;6137110.0;6060815.0
11:07:58.614;6137343.0;6057561.0
11:07:58.654;6137119.0;6057087.0
11:07:58.694;6137374.0;6056298.0
11:07:58.734;6137162.0;6056350.0
11:07:58.774;6137469.0;6058256.0
11:07:58.814;6138100.0;6059534.0
11:07:58.854;6138303.0;6059458.0
11:07:58.894;6137716.0;6059179.0
11:07:58.934;6138290.0;6059647.0
11:07:58.974;6138123.0;6059474.0
11:07:59.014;6138018.0;6059470.0
11:07:59.054;6138013.0;6059420.0
11:07:59.094;6138030.0;6059758.0
11:07:59.134;6138013.0;6059560.0
11:07:59.174;6138220.0;6059516.0
11:07:59.214;6138487.0;6062456.0
11:07:59.254;6140990.0;6063157.0
11:07:59.294;6137356.0;6058769.0
11:07:59.334;6137668.0;6058288.0
11:07:59.374;6137851.0;6057561.0
11:07:59.414;6137621.0;6057860.0
11:07:59.454;6137908.0;6059334.0
11:07:59.494;6138211.0;6060300.0
11:07:59.534;6138444.0;6060054.0
11:07:59.574;6138101.0;6060807.0
11:07:59.614;6138238.0;6060882.0
11:07:59.654;6138382.0;6060463.0
11:07:59.694;6138316.0;6060098.0
11:07:59.734;6138049.0;6060572.0
11:07:59.774;6138413.0;6060432.0
11:07:59.814;6138071.0;6060596.0
11:07:59.854;6140932.0;6070189.0
11:07:59.894;6138384.0;6063702.0
11:07:59.934;6137726.0;6059529.0
11:07:59.974;6137439.0;6059242.0
11:08:00.014;6137898.0;6058953.0
11:08:00.054;6137409.0;6059266.0
11:08:00.094;6137572.0;6060600.0
11:08:00.134;6138271.0;6061686.0
11:08:00.174;6137970.0;6061720.0
11:08:00.214;6138657.0;6065121.0
11:08:00.254;6140124.0;6064952.0
11:08:00.294;6137658.0;6060720.0
11:08:00.334;6137383.0;6059870.0
11:08:00.374;6137451.0;6059271.0
11:08:00.414;6138070.0;6060378.0
11:08:00.454;6138157.0;6061416.0
11:08:00.494;6138039.0;6062738.0
11:08:00.534;6138269.0;6062130.0
11:08:00.574;6138119.0;6063332.0
11:08:00.614;6137727.0;6063126.0
11:08:00.654;6138112.0;6062961.0
11:08:00.694;6138330.0;6063099.0
11:08:00.734;6138073.0;6063393.0
11:08:00.774;6137864.0;6063763.0
11:08:00.814;6138218.0;6063747.0
11:08:00.854;6142794.0;6070579.0
11:08:00.894;6136877.0;6063372.0
11:08:00.934;6137752.0;6063277.0
11:08:00.974;6137758.0;6062258.0
11:08:01.014;6137339.0;6061494.0
11:08:01.054;6137918.0;6062804.0
11:08:01.094;6137777.0;6064956.0
11:08:01.134;6138012.0;6065375.0
11:08:01.174;6138334.0;6064970.0
11:08:01.214;6138059.0;6064810.0
11:08:01.254;6144324.0;6075761.0
11:08:01.294;6136914.0;6066069.0
11:08:01.334;6137959.0;6063776.0
11:08:01.374;6137610.0;6062805.0
11:08:01.414;6137530.0;6062891.0
11:08:01.662;6137743.0;6063376.0
11:08:01.702;6137521.0;6064109.0
11:08:01.742;6137483.0;6063764.0
11:08:01.782;6138075.0;6063348.0
11:08:01.822;6137211.0;6064006.0
11:08:01.862;6137419.0;6066033.0
11:08:01.902;6137842.0;6066708.0
11:08:01.942;6140827.0;6078537.0
11:08:01.982;6135847.0;6069370.0
11:08:02.022;6137217.0;6064214.0
11:08:02.062;6137631.0;6063746.0
11:08:02.102;6137388.0;6063944.0
11:08:02.142;6137692.0;6064657.0
11:08:02.182;6137747.0;6066090.0
11:08:02.222;6137687.0;6066613.0
11:08:02.262;6137496.0;6066941.0
11:08:02.302;6138029.0;6066976.0
11:08:02.342;6137954.0;6070027.0
11:08:02.382;6140092.0;6070525.0
11:08:02.422;6137050.0;6065521.0
11:08:02.462;6137175.0;6064609.0
11:08:02.502;6136937.0;6064420.0
11:08:02.542;6137141.0;6064783.0
11:08:02.582;6137681.0;6065636.0
11:08:02.622;6137809.0;6066966.0
11:08:02.662;6137755.0;6067491.0
11:08:02.702;6137609.0;6067309.0
11:08:02.742;6137536.0;6067237.0
11:08:02.782;6138000.0;6067457.0
11:08:02.822;6137564.0;6067226.0
11:08:02.862;6137268.0;6067178.0
11:08:02.902;6137504.0;6067595.0
11:08:02.942;6137855.0;6067836.0
11:08:02.982;6137598.0;6066481.0
11:08:03.022;6137375.0;6067606.0
11:08:03.062;6137470.0;6067954.0
11:08:03.102;6138216.0;6072448.0
11:08:03.142;6139484.0;6070533.0
11:08:03.182;6136591.0;6066192.0
11:08:03.222;6137111.0;6065786.0
11:08:03.262;6137284.0;6065772.0
11:08:03.302;6137170.0;6065762.0
11:08:03.342;6137099.0;6066331.0
11:08:03.382;6137799.0;6068172.0
11:08:03.422;6137909.0;6068610.0
11:08:03.462;6137668.0;6068665.0
11:08:03.502;6139082.0;6075527.0
11:08:03.542;6136663.0;6072004.0
11:08:03.582;6137319.0;6066692.0
11:08:03.622;6137545.0;6066804.0
11:08:03.662;6138053.0;6066798.0
11:08:03.702;6137927.0;6066883.0
11:08:03.742;6137857.0;6068508.0
11:08:03.782;6138608.0;6069584.0
11:08:03.822;6138806.0;6069975.0
11:08:03.862;6138518.0;6069673.0
11:08:03.902;6139286.0;6070561.0
11:08:03.942;6146091.0;6080053.0
11:08:03.982;6138537.0;6070153.0
11:08:04.022;6139845.0;6069202.0
11:08:04.062;6139881.0;6068651.0
11:08:04.102;6140375.0;6068821.0
11:08:04.142;6141040.0;6069815.0
11:08:04.182;6141826.0;6071654.0
11:08:04.222;6142215.0;6072272.0
11:08:04.262;6142952.0;6072796.0
11:08:04.302;6143236.0;6073347.0
11:08:04.342;6143705.0;6073109.0
11:08:04.382;6150943.0;6086538.0
11:08:04.422;6143727.0;6075924.0
11:08:04.462;6145955.0;6073580.0
11:08:04.502;6146950.0;6073649.0
11:08:04.542;6148337.0;6074224.0
11:08:04.582;6150042.0;6076661.0
11:08:04.622;6151543.0;6079160.0
11:08:04.662;6150835.0;6078237.0
11:08:04.702;6150627.0;6077531.0
11:08:04.742;6150319.0;6077314.0
11:08:04.782;6155609.0;6085127.0
11:08:04.822;6147683.0;6073961.0
11:08:04.862;6148230.0;6071515.0
11:08:04.902;6146988.0;6070323.0
11:08:04.942;6146439.0;6068935.0
11:08:04.982;6146489.0;6068908.0
11:08:05.022;6147634.0;6070567.0
11:08:05.062;6147890.0;6071795.0
11:08:05.102;6149006.0;6071648.0
11:08:05.142;6149385.0;6070744.0
11:08:05.182;6149391.0;6070923.0
11:08:05.222;6149984.0;6071410.0
11:08:05.262;6150406.0;6071260.0
11:08:05.302;6154940.0;6082098.0
11:08:05.342;6149105.0;6072344.0
11:08:05.382;6149943.0;6069537.0
11:08:05.422;6149978.0;6068531.0
11:08:05.462;6149507.0;6067297.0
11:08:05.502;6149762.0;6067583.0
11:08:05.542;6149661.0;6068944.0
11:08:05.582;6149704.0;6069233.0
11:08:05.622;6149273.0;6068814.0
11:08:06.054;6149339.0;6068054.0
11:08:06.094;6147714.0;6064185.0
11:08:06.134;6147158.0;6063235.0
11:08:06.174;6147224.0;6064561.0
11:08:06.214;6147604.0;6066039.0
11:08:06.254;6147164.0;6065670.0
11:08:06.294;6147368.0;6064719.0
11:08:06.334;6147170.0;6064381.0
11:08:06.374;6146445.0;6064261.0
11:08:06.414;6146160.0;6064300.0
11:08:06.454;6151166.0;6075725.0
11:08:06.494;6146001.0;6065724.0
11:08:06.534;6145272.0;6061524.0
11:08:06.574;6145473.0;6061567.0
11:08:06.614;6145035.0;6060779.0
11:08:06.654;6145050.0;6060756.0
11:08:06.694;6145792.0;6062226.0
11:08:06.734;6145314.0;6062590.0
11:08:06.774;6144833.0;6062336.0
11:08:06.814;6144869.0;6062610.0
11:08:06.854;6145346.0;6062279.0
11:08:06.894;6145277.0;6061722.0
11:08:06.934;6144498.0;6062270.0
11:08:06.974;6149577.0;6067779.0
11:08:07.014;6144006.0;6060864.0
11:08:07.054;6143692.0;6059192.0
11:08:07.094;6143855.0;6059925.0
11:08:07.134;6143924.0;6059890.0
11:08:07.174;6143892.0;6060480.0
11:08:07.214;6144041.0;6061998.0
11:08:07.254;6144249.0;6061864.0
11:08:07.294;6143676.0;6061344.0
11:08:07.334;6143606.0;6061906.0
11:08:07.374;6144051.0;6062035.0
11:08:07.414;6143820.0;6061653.0
11:08:07.454;6143930.0;6061138.0
11:08:07.494;6143564.0;6061630.0
11:08:07.534;6143521.0;6062175.0
11:08:07.574;6152038.0;6073536.0
11:08:07.614;6142744.0;6062743.0
11:08:07.654;6144033.0;6060780.0
11:08:07.694;6143405.0;6060745.0
11:08:07.734;6143586.0;6060227.0
11:08:07.774;6144010.0;6060879.0
11:08:07.814;6143757.0;6062512.0
11:08:07.854;6144439.0;6063331.0
11:08:07.894;6144045.0;6062937.0
11:08:07.934;6144695.0;6070473.0
11:08:07.974;6143679.0;6066767.0
11:08:08.014;6144161.0;6061398.0
11:08:08.054;6143630.0;6061240.0
11:08:08.094;6143991.0;6060901.0
11:08:08.134;6144168.0;6061555.0
11:08:08.174;6144308.0;6062636.0
11:08:08.214;6144435.0;6063838.0
11:08:08.254;6144028.0;6063647.0
11:08:08.294;6144080.0;6063867.0
11:08:08.334;6149697.0;6075192.0
11:08:08.374;6142929.0;6063598.0
11:08:08.414;6143455.0;6061971.0
11:08:08.454;6143249.0;6061649.0
11:08:08.494;6143133.0;6060701.0
11:08:08.534;6142838.0;6061487.0
11:08:08.574;6143195.0;6064086.0
11:08:08.614;6143437.0;6063820.0
11:08:08.654;6143430.0;6063680.0
11:08:08.694;6143490.0;6066453.0
11:08:08.734;6145924.0;6067615.0
11:08:08.774;6142439.0;6062113.0
11:08:08.814;6142674.0;6061554.0
11:08:08.854;6142707.0;6060874.0
11:08:08.894;6142134.0;6061522.0
11:08:08.934;6142699.0;6062983.0
11:08:08.974;6142991.0;6064157.0
11:08:09.014;6143047.0;6063575.0
11:08:09.054;6142532.0;6064058.0
11:08:09.094;6143078.0;6064250.0
11:08:09.134;6142867.0;6064130.0
11:08:09.174;6142598.0;6063229.0
11:08:09.214;6142055.0;6063608.0
11:08:09.254;6142934.0;6064611.0
11:08:09.294;6142756.0;6064639.0
11:08:09.334;6147789.0;6075852.0
11:08:09.374;6141536.0;6066715.0
11:08:09.414;6141999.0;6063180.0
11:08:09.454;6141891.0;6062858.0
11:08:09.494;6141917.0;6061856.0
11:08:09.534;6141854.0;6061681.0
11:08:09.574;6142495.0;6064674.0
11:08:09.614;6142749.0;6065892.0
11:08:09.654;6142790.0;6064947.0
11:08:09.694;6147819.0;6076103.0
11:08:09.734;6141325.0;6067757.0
11:08:09.774;6142688.0;6064314.0
11:08:09.814;6143024.0;6063108.0
11:08:09.854;6143640.0;6063550.0
11:08:09.894;6143629.0;6065189.0
11:08:09.934;6143998.0;6066509.0
11:08:09.974;6143777.0;6066404.0
11:08:10.014;6144250.0;6066792.0
11:08:10.359;6143923.0;6067677.0
11:08:10.399;6145305.0;6066832.0
11:08:10.439;6145506.0;6066647.0
11:08:10.479;6145567.0;6066433.0
11:08:10.519;6145767.0;6067932.0
11:08:10.559;6146540.0;6069792.0
11:08:10.599;6146282.0;6069441.0
11:08:10.639;6146710.0;6069127.0
11:08:10.679;6146772.0;6069453.0
11:08:10.719;6146541.0;6069226.0
11:08:10.759;6146164.0;6068685.0
11:08:10.799;6146372.0;6068383.0
11:08:10.839;6146275.0;6068802.0
11:08:10.879;6146215.0;6068340.0
11:08:10.919;6151353.0;6075062.0
11:08:10.959;6144507.0;6067023.0
11:08:10.999;6145293.0;6066155.0
11:08:11.039;6145361.0;6065662.0
11:08:11.079;6145218.0;6065101.0
11:08:11.119;6144764.0;6064835.0
11:08:11.159;6145679.0;6066484.0
11:08:11.199;6145730.0;6066854.0
11:08:11.239;6145446.0;6066336.0
11:08:11.279;6146291.0;6072774.0
11:08:11.319;6144611.0;6069874.0
11:08:11.359;6145125.0;6064398.0
11:08:11.399;6144885.0;6063466.0
11:08:11.439;6144909.0;6062502.0
11:08:11.479;6145625.0;6062636.0
11:08:11.519;6145477.0;6064331.0
11:08:11.559;6145215.0;6065178.0
11:08:11.599;6145607.0;6065448.0
11:08:11.639;6146521.0;6064946.0
11:08:11.679;6146847.0;6072436.0
11:08:11.719;6147094.0;6068121.0
11:08:11.759;6146161.0;6063455.0
11:08:11.799;6146173.0;6062587.0
11:08:11.839;6145883.0;6061802.0
11:08:11.879;6146135.0;6062347.0
11:08:11.919;6146601.0;6063839.0
11:08:11.959;6146969.0;6064291.0
11:08:11.999;6146941.0;6064073.0
11:08:12.039;6146958.0;6064498.0
11:08:12.079;6146929.0;6064527.0
11:08:12.119;6151780.0;6070070.0
11:08:12.159;6145903.0;6062875.0
11:08:12.199;6146798.0;6061926.0
11:08:12.239;6146137.0;6061355.0
11:08:12.279;6146213.0;6060938.0
11:08:12.319;6146243.0;6061704.0
11:08:12.359;6146706.0;6062946.0
11:08:12.399;6146484.0;6063656.0
11:08:12.439;6146479.0;6068507.0
11:08:12.479;6146808.0;6065779.0
11:08:12.519;6146019.0;6060735.0
11:08:12.559;6146082.0;6060977.0
11:08:12.599;6145702.0;6060374.0
11:08:12.639;6145755.0;6060086.0
11:08:12.679;6146218.0;6062103.0
11:08:12.719;6146375.0;6063111.0
11:08:12.759;6145983.0;6062771.0
11:08:12.799;6145946.0;6062472.0
11:08:12.839;6145948.0;6062284.0
11:08:12.879;6145736.0;6062153.0
11:08:12.919;6146091.0;6063152.0
11:08:12.959;6146183.0;6062897.0
11:08:12.999;6146203.0;6062619.0
11:08:13.039;6146044.0;6061973.0
11:08:13.079;6146112.0;6061890.0
11:08:13.119;6146082.0;6063907.0
11:08:13.159;6146446.0;6063449.0
11:08:13.199;6146437.0;6062983.0
11:08:13.239;6147663.0;6070531.0
11:08:13.279;6146322.0;6067035.0
11:08:13.319;6146295.0;6062646.0
11:08:13.359;6146457.0;6061593.0
11:08:13.399;6146495.0;6061797.0
11:08:13.439;6147158.0;6062853.0
11:08:13.479;6147485.0;6063670.0
11:08:13.519;6147911.0;6064665.0
11:08:13.559;6147746.0;6065260.0
11:08:13.599;6148455.0;6065296.0
11:08:13.639;6148197.0;6065816.0
11:08:13.679;6148338.0;6065645.0
11:08:13.719;6148248.0;6065764.0
11:08:13.759;6148728.0;6065688.0
11:08:13.799;6148645.0;6066005.0
11:08:13.839;6148552.0;6065476.0
11:08:13.879;6150196.0;6073587.0
11:08:13.919;6149370.0;6068335.0
11:08:13.959;6148464.0;6063932.0
11:08:13.999;6148063.0;6063719.0
11:08:14.039;6148345.0;6063834.0
11:08:14.079;6148866.0;6063403.0
11:08:14.119;6149164.0;6064363.0
11:08:14.159;6148987.0;6065679.0
11:08:14.199;6149055.0;6065515.0
11:08:14.239;6149310.0;6064819.0
11:08:14.279;6148961.0;6065070.0
11:08:14.319;6156088.0;6076043.0
11:08:16.090;6148115.0;6065617.0
11:08:16.130;6150761.0;6064518.0
11:08:16.170;6150407.0;6065091.0
11:08:16.210;6150589.0;6064705.0
11:08:16.250;6150182.0;6064406.0
11:08:16.290;6151545.0;6067339.0
11:08:16.330;6155231.0;6069650.0
11:08:16.370;6150706.0;6063748.0
11:08:16.410;6150916.0;6062889.0
11:08:16.450;6151252.0;6063426.0
11:08:16.490;6151457.0;6062729.0
11:08:16.530;6151385.0;6063393.0
11:08:16.570;6151869.0;6065219.0
11:08:16.610;6152140.0;6066381.0
11:08:16.650;6152522.0;6065526.0
11:08:16.690;6152581.0;6065218.0
11:08:16.730;6152559.0;6068122.0
11:08:16.770;6155433.0;6070190.0
11:08:16.810;6152553.0;6064753.0
11:08:16.850;6152902.0;6064218.0
11:08:16.890;6153757.0;6064233.0
11:08:16.930;6154144.0;6066118.0
11:08:16.970;6155046.0;6067009.0
11:08:17.010;6155633.0;6068287.0
11:08:17.050;6155785.0;6068451.0
11:08:17.090;6158419.0;6079327.0
11:08:17.130;6155466.0;6073285.0
11:08:17.170;6157454.0;6068945.0
11:08:17.210;6157724.0;6067983.0
11:08:17.250;6158312.0;6068678.0
11:08:17.290;6159784.0;6070655.0
11:08:17.330;6161002.0;6072808.0
11:08:17.370;6161389.0;6073736.0
11:08:17.410;6161811.0;6073593.0
11:08:17.450;6162721.0;6073905.0
11:08:17.490;6162991.0;6074244.0
11:08:17.530;6163179.0;6073680.0
11:08:17.570;6164078.0;6074498.0
11:08:17.610;6164207.0;6074158.0
11:08:17.650;6163887.0;6073146.0
11:08:17.690;6163307.0;6072091.0
11:08:17.730;6163915.0;6071828.0
11:08:17.770;6163942.0;6071612.0
11:08:17.810;6167906.0;6076144.0
11:08:17.850;6163805.0;6070867.0
11:08:17.890;6164813.0;6070434.0
11:08:17.930;6165120.0;6070285.0
11:08:17.970;6165319.0;6070410.0
11:08:18.010;6166567.0;6070466.0
11:08:18.050;6166840.0;6071437.0
11:08:18.090;6166814.0;6072076.0
11:08:18.130;6167754.0;6072481.0
11:08:18.170;6168339.0;6072398.0
11:08:18.210;6168857.0;6071991.0
11:08:18.250;6168718.0;6071210.0
11:08:18.290;6169285.0;6077432.0
11:08:18.330;6172391.0;6075880.0
11:08:18.370;6171149.0;6071790.0
11:08:18.410;6173239.0;6072195.0
11:08:18.450;6173862.0;6072808.0
11:08:18.490;6174521.0;6072864.0
11:08:18.530;6175346.0;6073775.0
11:08:18.570;6176555.0;6075779.0
11:08:18.610;6176330.0;6074801.0
11:08:18.650;6176086.0;6074180.0
11:08:18.690;6180206.0;6085277.0
11:08:18.730;6174831.0;6076568.0
11:08:18.770;6176357.0;6071516.0
11:08:18.810;6175409.0;6070591.0
11:08:18.850;6175625.0;6071152.0
11:08:18.890;6175727.0;6071313.0
11:08:18.930;6176117.0;6072528.0
11:08:18.970;6176255.0;6072657.0
11:08:19.010;6175571.0;6072737.0
11:08:19.050;6176047.0;6072663.0
11:08:19.090;6176897.0;6073035.0
11:08:19.130;6179381.0;6076532.0
11:08:19.170;6175417.0;6070583.0
11:08:19.210;6176352.0;6069963.0
11:08:19.250;6176419.0;6069641.0
11:08:19.290;6176114.0;6069075.0
11:08:19.330;6177037.0;6071261.0
11:08:19.370;6177305.0;6073017.0
11:08:19.410;6177340.0;6072622.0
11:08:19.450;6176725.0;6072077.0
11:08:19.490;6177249.0;6072640.0
11:08:19.530;6181730.0;6078579.0
11:08:19.570;6175500.0;6070644.0
11:08:19.610;6175768.0;6068645.0
11:08:19.650;6176328.0;6068559.0
11:08:19.690;6175986.0;6068646.0
11:08:19.730;6176583.0;6069531.0
11:08:19.770;6177109.0;6071605.0
11:08:19.810;6177281.0;6071224.0
11:08:19.850;6176991.0;6071048.0
11:08:19.890;6183282.0;6081966.0
11:08:19.930;6175867.0;6072128.0
11:08:19.970;6177000.0;6068788.0
11:08:20.010;6176548.0;6068338.0
11:08:20.050;6176383.0;6067614.0
11:08:21.420;6177024.0;6068766.0
11:08:21.460;6178765.0;6077531.0
11:08:21.500;6179579.0;6077258.0
11:08:21.540;6185164.0;6088370.0
11:08:21.580;6177550.0;6077955.0
11:08:21.620;6178073.0;6075631.0
11:08:21.660;6178703.0;6075342.0
11:08:21.700;6179162.0;6075313.0
11:08:21.740;6178379.0;6076145.0
11:08:21.780;6178256.0;6078044.0
11:08:21.820;6179044.0;6079068.0
11:08:21.860;6179303.0;6078537.0
11:08:21.900;6179157.0;6079149.0
11:08:21.940;6179370.0;6079681.0
11:08:21.980;6179326.0;6080449.0
11:08:22.020;6179636.0;6080199.0
11:08:22.060;6179582.0;6080597.0
11:08:22.100;6179491.0;6080744.0
11:08:22.140;6179565.0;6084476.0
11:08:22.180;6182402.0;6084484.0
11:08:22.220;6179655.0;6080255.0
11:08:22.260;6179603.0;6079762.0
11:08:22.300;6179662.0;6079664.0
11:08:22.340;6179902.0;6080502.0
11:08:22.380;6179809.0;6081228.0
11:08:22.420;6180396.0;6083726.0
11:08:22.460;6180411.0;6083506.0
11:08:22.500;6180563.0;6083552.0
11:08:22.540;6186606.0;6095575.0
11:08:22.580;6179963.0;6087363.0
11:08:22.620;6180893.0;6083746.0
11:08:22.660;6181082.0;6082988.0
11:08:22.700;6180997.0;6082734.0
11:08:22.740;6181685.0;6084216.0
11:08:22.780;6181707.0;6086520.0
11:08:22.820;6181859.0;6087288.0
11:08:22.860;6181568.0;6086732.0
11:08:22.900;6182419.0;6087598.0
11:08:22.940;6182438.0;6087722.0
11:08:22.980;6182415.0;6087393.0
11:08:23.020;6181871.0;6087975.0
11:08:23.060;6182273.0;6088457.0
11:08:23.100;6190290.0;6099523.0
11:08:23.140;6180724.0;6088231.0
11:08:23.180;6182305.0;6086601.0
11:08:23.220;6182122.0;6087396.0
11:08:23.260;6182103.0;6086262.0
11:08:23.300;6182002.0;6086702.0
11:08:23.340;6182235.0;6088338.0
11:08:23.380;6182648.0;6090144.0
11:08:23.420;6183303.0;6090156.0
11:08:23.460;6189240.0;6100671.0
11:08:23.500;6181691.0;6091538.0
11:08:23.540;6182975.0;6089327.0
11:08:23.580;6183424.0;6089130.0
11:08:23.620;6184048.0;6088601.0
11:08:23.660;6183690.0;6088829.0
11:08:23.700;6184329.0;6091797.0
11:08:23.740;6184917.0;6092386.0
11:08:23.780;6185422.0;6092416.0
11:08:23.820;6184819.0;6092448.0
11:08:23.860;6185896.0;6093770.0
11:08:23.900;6187159.0;6101892.0
11:08:23.940;6186227.0;6097004.0
11:08:23.980;6185517.0;6092658.0
11:08:24.020;6186635.0;6092704.0
11:08:24.060;6186753.0;6092408.0
11:08:24.100;6187273.0;6092793.0
11:08:24.140;6187322.0;6095260.0
11:08:24.180;6188527.0;6096819.0
11:08:24.220;6188598.0;6096479.0
11:08:24.260;6188715.0;6096341.0
11:08:24.300;6188720.0;6097426.0
11:08:24.340;6189678.0;6100193.0
11:08:24.380;6193007.0;6102003.0
11:08:24.420;6189451.0;6096962.0
11:08:24.460;6190212.0;6096389.0
11:08:24.500;6190554.0;6098135.0
11:08:24.540;6191011.0;6097906.0
11:08:24.580;6191471.0;6098633.0
11:08:24.620;6191444.0;6100008.0
11:08:24.660;6192011.0;6101287.0
11:08:24.700;6192237.0;6101811.0
11:08:24.740;6192503.0;6101586.0
11:08:24.780;6196501.0;6113501.0
11:08:24.820;6191847.0;6105009.0
11:08:24.860;6192835.0;6100799.0
11:08:24.900;6193269.0;6100552.0
11:08:24.940;6192912.0;6099942.0
11:08:24.980;6193717.0;6100913.0
11:08:25.020;6194018.0;6102865.0
11:08:25.060;6194524.0;6104031.0
11:08:25.100;6194911.0;6104752.0
11:08:25.140;6201064.0;6110942.0
11:08:25.180;6195269.0;6104642.0
11:08:25.220;6195998.0;6103551.0
11:08:25.260;6196151.0;6103751.0
11:08:25.300;6197379.0;6104776.0
11:08:25.340;6197794.0;6105738.0
11:08:25.380;6198634.0;6108148.0
11:08:26.125;6198550.0;6108572.0
11:08:26.165;6207303.0;6116609.0
11:08:26.205;6200238.0;6109234.0
11:08:26.245;6200975.0;6110257.0
11:08:26.285;6201633.0;6109999.0
11:08:26.325;6201584.0;6108857.0
11:08:26.365;6201336.0;6109492.0
11:08:26.405;6201977.0;6111633.0
11:08:26.445;6202392.0;6111821.0
11:08:26.485;6208509.0;6122259.0
11:08:26.525;6200188.0;6112701.0
11:08:26.565;6201445.0;6109868.0
11:08:26.605;6201322.0;6108591.0
11:08:26.645;6200188.0;6107938.0
11:08:26.685;6200882.0;6109316.0
11:08:26.725;6201033.0;6110823.0
11:08:26.765;6200873.0;6110562.0
11:08:26.805;6199923.0;6110221.0
11:08:26.845;6200445.0;6110458.0
11:08:26.885;6200329.0;6110399.0
11:08:26.925;6200106.0;6109716.0
11:08:26.965;6199465.0;6110069.0
11:08:27.005;6205288.0;6122303.0
11:08:27.045;6199084.0;6112516.0
11:08:27.085;6199464.0;6108076.0
11:08:27.125;6199078.0;6108771.0
11:08:27.165;6199348.0;6108188.0
11:08:27.205;6199232.0;6108034.0
11:08:27.245;6199356.0;6109241.0
11:08:27.285;6198712.0;6109935.0
11:08:27.325;6199144.0;6110377.0
11:08:27.365;6199191.0;6109807.0
11:08:27.405;6199116.0;6109614.0
11:08:27.445;6198473.0;6108906.0
11:08:27.485;6198961.0;6110280.0
11:08:27.525;6206157.0;6122783.0
11:08:27.565;6197412.0;6110413.0
11:08:27.605;6198154.0;6107050.0
11:08:27.645;6197922.0;6108214.0
11:08:27.685;6197616.0;6108028.0
11:08:27.725;6197760.0;6108058.0
11:08:27.765;6198167.0;6108676.0
11:08:27.805;6198142.0;6110184.0
11:08:27.845;6197659.0;6110420.0
11:08:27.885;6197908.0;6110406.0
11:08:27.925;6203593.0;6118349.0
11:08:27.965;6196826.0;6110195.0
11:08:28.005;6197310.0;6108255.0
11:08:28.045;6197938.0;6107921.0
11:08:28.085;6198152.0;6107951.0
11:08:28.125;6197800.0;6108505.0
11:08:28.165;6198170.0;6109778.0
11:08:28.205;6197998.0;6110460.0
11:08:28.245;6198011.0;6110523.0
11:08:28.285;6203477.0;6122853.0
11:08:28.325;6197395.0;6112417.0
11:08:28.365;6198283.0;6108869.0
11:08:28.405;6198443.0;6108589.0
11:08:28.445;6199103.0;6108691.0
11:08:28.485;6199316.0;6109094.0
11:08:28.525;6199906.0;6110720.0
11:08:28.565;6200421.0;6111604.0
11:08:28.605;6200682.0;6111762.0
11:08:28.645;6200632.0;6111397.0
11:08:28.685;6201371.0;6111539.0
11:08:28.725;6201615.0;6111673.0
11:08:28.765;6201528.0;6111510.0
11:08:28.805;6207484.0;6118653.0
11:08:28.845;6201307.0;6110481.0
11:08:28.885;6201723.0;6110014.0
11:08:28.925;6201768.0;6109300.0
11:08:28.965;6202283.0;6109594.0
11:08:29.005;6202311.0;6109748.0
11:08:29.045;6203012.0;6111060.0
11:08:29.085;6203157.0;6111320.0
11:08:29.125;6202904.0;6111076.0
11:08:29.165;6202855.0;6110607.0
11:08:29.205;6203941.0;6110884.0
11:08:29.245;6203604.0;6111369.0
11:08:29.285;6203907.0;6117369.0
11:08:29.325;6205561.0;6114146.0
11:08:29.365;6203730.0;6109414.0
11:08:29.405;6203576.0;6109699.0
11:08:29.445;6203409.0;6108849.0
11:08:29.485;6204121.0;6109481.0
11:08:29.525;6204431.0;6110506.0
11:08:29.565;6204095.0;6111612.0
11:08:29.605;6203930.0;6110922.0
11:08:29.645;6204437.0;6111210.0
11:08:29.685;6204374.0;6110698.0
11:08:29.725;6203829.0;6110386.0
11:08:29.765;6204570.0;6110806.0
11:08:29.805;6208765.0;6122173.0
11:08:29.845;6204398.0;6112819.0
11:08:29.885;6203544.0;6108409.0
11:08:29.925;6204107.0;6109135.0
11:08:29.965;6204239.0;6108673.0
11:08:30.005;6204419.0;6108504.0
11:08:30.045;6203730.0;6109378.0
11:08:30.085;6204295.0;6111510.0
11:08:28.992;6204505.0;6110546.0
11:08:29.032;6203722.0;6109481.0
11:08:29.072;6203853.0;6110103.0
11:08:29.112;6203571.0;6109491.0
11:08:29.152;6203965.0;6110145.0
11:08:29.192;6203759.0;6110328.0
11:08:29.232;6203569.0;6109893.0
11:08:29.272;6203538.0;6109368.0
11:08:29.312;6203766.0;6109693.0
11:08:29.352;6203193.0;6110254.0
11:08:29.392;6205331.0;6119469.0
11:08:29.432;6203357.0;6112072.0
11:08:29.472;6201999.0;6107420.0
11:08:29.512;6203182.0;6107765.0
11:08:29.552;6202790.0;6107803.0
11:08:29.592;6202482.0;6107427.0
11:08:29.632;6202555.0;6108308.0
11:08:29.672;6203028.0;6109271.0
11:08:29.712;6202907.0;6109669.0
11:08:29.752;6202669.0;6109485.0
11:08:29.792;6202634.0;6109370.0
11:08:29.832;6202812.0;6108602.0
11:08:29.872;6202972.0;6109229.0
11:08:29.912;6202471.0;6109152.0
11:08:29.952;6202326.0;6108724.0
11:08:29.992;6202898.0;6114074.0
11:08:30.032;6204936.0;6111674.0
11:08:30.072;6202155.0;6107458.0
11:08:30.112;6201960.0;6107061.0
11:08:30.152;6202031.0;6107575.0
11:08:30.192;6202593.0;6107432.0
11:08:30.232;6202762.0;6107896.0
11:08:30.272;6202385.0;6109254.0
11:08:30.312;6202695.0;6109737.0
11:08:30.352;6203100.0;6109617.0
11:08:30.392;6202943.0;6108670.0
11:08:30.432;6202704.0;6109787.0
11:08:30.472;6203317.0;6110194.0
11:08:30.512;6208138.0;6115071.0
11:08:30.552;6202496.0;6108599.0
11:08:30.592;6202836.0;6108497.0
11:08:30.632;6203082.0;6108293.0
11:08:30.672;6203278.0;6108330.0
11:08:30.712;6203418.0;6108651.0
11:08:30.752;6203354.0;6110991.0
11:08:30.792;6203922.0;6111797.0
11:08:30.832;6209787.0;6123366.0
11:08:30.872;6202392.0;6112152.0
11:08:30.912;6203173.0;6109582.0
11:08:30.952;6204233.0;6110199.0
11:08:30.992;6204013.0;6109856.0
11:08:31.032;6203845.0;6110055.0
11:08:31.072;6204127.0;6111551.0
11:08:31.112;6204310.0;6112199.0
11:08:31.152;6204022.0;6111891.0
11:08:31.192;6203969.0;6111940.0
11:08:31.232;6204523.0;6112426.0
11:08:31.272;6204369.0;6112151.0
11:08:31.312;6204252.0;6112467.0
11:08:31.352;6204988.0;6120012.0
11:08:31.392;6204571.0;6114510.0
11:08:31.432;6203547.0;6110336.0
11:08:31.472;6204181.0;6110736.0
11:08:31.512;6204124.0;6109531.0
11:08:31.552;6203778.0;6109487.0
11:08:31.592;6203810.0;6110582.0
11:08:31.632;6204422.0;6113008.0
11:08:31.672;6204683.0;6112631.0
11:08:31.712;6203873.0;6111018.0
11:08:31.752;6203821.0;6111086.0
11:08:31.792;6207253.0;6123026.0
11:08:31.832;6203412.0;6114783.0
11:08:31.872;6203790.0;6109713.0
11:08:31.912;6203483.0;6108580.0
11:08:31.952;6203702.0;6109277.0
11:08:31.992;6204017.0;6109441.0
11:08:32.032;6204652.0;6110546.0
11:08:32.072;6203861.0;6111216.0
11:08:32.112;6204411.0;6111292.0
11:08:32.152;6204480.0;6111310.0
11:08:32.192;6209776.0;6124282.0
11:08:32.232;6202573.0;6112848.0
11:08:32.272;6203862.0;6108568.0
11:08:32.312;6203907.0;6108176.0
11:08:32.352;6203682.0;6108808.0
11:08:32.392;6204537.0;6109356.0
11:08:32.432;6204338.0;6110270.0
11:08:32.472;6204398.0;6110496.0
11:08:32.512;6204177.0;6111153.0
11:08:32.552;6204654.0;6111015.0
11:08:32.592;6204304.0;6110457.0
11:08:32.632;6203837.0;6111544.0
11:08:32.672;6207435.0;6115067.0
11:08:32.712;6204028.0;6109822.0
11:08:32.752;6204487.0;6108807.0
11:08:32.792;6203999.0;6108253.0
11:08:32.832;6203706.0;6107824.0
11:08:32.872;6204465.0;6109921.0
11:08:32.912;6204642.0;6111173.0
11:08:32.952;6204837.0;6111091.0
11:08:33.294;6204106.0;6110892.0
11:08:33.334;6204030.0;6108363.0
11:08:33.374;6203380.0;6108711.0
11:08:33.414;6203907.0;6109221.0
11:08:33.454;6204554.0;6110932.0
11:08:33.494;6204386.0;6111136.0
11:08:33.534;6204031.0;6111247.0
11:08:33.574;6203913.0;6111172.0
11:08:33.614;6204787.0;6111475.0
11:08:33.654;6204674.0;6111428.0
11:08:33.694;6204206.0;6111129.0
11:08:33.734;6204716.0;6112340.0
11:08:33.774;6205006.0;6112086.0
11:08:33.814;6204639.0;6111247.0
11:08:33.854;6204481.0;6111935.0
11:08:33.894;6204828.0;6112094.0
11:08:33.934;6204643.0;6112261.0
11:08:33.974;6204564.0;6112988.0
11:08:34.014;6208280.0;6116975.0
11:08:34.054;6203749.0;6111295.0
11:08:34.094;6204297.0;6110537.0
11:08:34.134;6204292.0;6110549.0
11:08:34.174;6204304.0;6110632.0
11:08:34.214;6204456.0;6111749.0
11:08:34.254;6204432.0;6113313.0
11:08:34.294;6205139.0;6113054.0
11:08:34.334;6204763.0;6113215.0
11:08:34.374;6209196.0;6124457.0
11:08:34.414;6202804.0;6115920.0
11:08:34.454;6204511.0;6111648.0
11:08:34.494;6204854.0;6111390.0
11:08:34.534;6204487.0;6111017.0
11:08:34.574;6204246.0;6111672.0
11:08:34.614;6204576.0;6113229.0
11:08:34.654;6204642.0;6113663.0
11:08:34.694;6204448.0;6113669.0
11:08:34.734;6204693.0;6114129.0
11:08:34.774;6205017.0;6115306.0
11:08:34.814;6206644.0;6118011.0
11:08:34.854;6203834.0;6112873.0
11:08:34.894;6204199.0;6112071.0
11:08:34.934;6203869.0;6111840.0
11:08:34.974;6204259.0;6112201.0
11:08:35.014;6204000.0;6113124.0
11:08:35.054;6204175.0;6114671.0
11:08:35.094;6204209.0;6114820.0
11:08:35.134;6210601.0;6123226.0
11:08:35.174;6202818.0;6114448.0
11:08:35.214;6203788.0;6113084.0
11:08:35.254;6203703.0;6112791.0
11:08:35.294;6203675.0;6112561.0
11:08:35.334;6203705.0;6112978.0
11:08:35.374;6204079.0;6115191.0
11:08:35.414;6205480.0;6126259.0
11:08:35.454;6202044.0;6118160.0
11:08:35.494;6203699.0;6113289.0
11:08:35.534;6203113.0;6113147.0
11:08:35.574;6202997.0;6113038.0
11:08:35.614;6203321.0;6113538.0
11:08:35.654;6203437.0;6114710.0
11:08:35.694;6203875.0;6115866.0
11:08:35.734;6203451.0;6116172.0
11:08:35.774;6203276.0;6116179.0
11:08:35.814;6203078.0;6115763.0
11:08:35.854;6203085.0;6115504.0
11:08:35.894;6202905.0;6115894.0
11:08:35.934;6202571.0;6115875.0
11:08:35.974;6207705.0;6121013.0
11:08:36.014;6201496.0;6114283.0
11:08:36.054;6201711.0;6113785.0
11:08:36.094;6202163.0;6113940.0
11:08:36.134;6202251.0;6113200.0
11:08:36.174;6202086.0;6113895.0
11:08:36.214;6202421.0;6116204.0
11:08:36.254;6202543.0;6116227.0
11:08:36.294;6202371.0;6115343.0
11:08:36.334;6202424.0;6115563.0
11:08:36.374;6202286.0;6116114.0
11:08:36.414;6202154.0;6115971.0
11:08:36.454;6202368.0;6115703.0
11:08:36.494;6202571.0;6115468.0
11:08:36.534;6201778.0;6115879.0
11:08:36.574;6203136.0;6124491.0
11:08:36.614;6203137.0;6118634.0
11:08:36.654;6201576.0;6114306.0
11:08:36.694;6201445.0;6114399.0
11:08:36.734;6201368.0;6114207.0
11:08:36.774;6201164.0;6113792.0
11:08:36.814;6201863.0;6114892.0
11:08:36.854;6201801.0;6116608.0
11:08:36.894;6201735.0;6116377.0
11:08:36.934;6201811.0;6115923.0
11:08:36.974;6201681.0;6115547.0
11:08:37.014;6201462.0;6116314.0
11:08:37.054;6202006.0;6116553.0
11:08:37.094;6201803.0;6117821.0
11:08:37.134;6205120.0;6120301.0
11:08:37.174;6201593.0;6115983.0
11:08:37.214;6202204.0;6115675.0
11:08:37.254;6202267.0;6115265.0
11:08:37.591;6202617.0;6115264.0
11:08:37.631;6204588.0;6119880.0
11:08:37.671;6204988.0;6120318.0
11:08:37.711;6205699.0;6120028.0
11:08:37.751;6205890.0;6120056.0
11:08:37.791;6206296.0;6121582.0
11:08:37.831;6206834.0;6121828.0
11:08:37.871;6213957.0;6134616.0
11:08:37.911;6206061.0;6123129.0
11:08:37.951;6207557.0;6120775.0
11:08:37.991;6207720.0;6120552.0
11:08:38.031;6207826.0;6119912.0
11:08:38.071;6208170.0;6120295.0
11:08:38.111;6208281.0;6122050.0
11:08:38.151;6208556.0;6122894.0
11:08:38.191;6209250.0;6122962.0
11:08:38.231;6209770.0;6122803.0
11:08:38.271;6209444.0;6122615.0
11:08:38.311;6209820.0;6123306.0
11:08:38.351;6210387.0;6123478.0
11:08:38.391;6210384.0;6123195.0
11:08:38.431;6210078.0;6123623.0
11:08:38.471;6218338.0;6133743.0
11:08:38.511;6209767.0;6123077.0
11:08:38.551;6210236.0;6121319.0
11:08:38.591;6211335.0;6121867.0
11:08:38.631;6210868.0;6121639.0
11:08:38.671;6210813.0;6121607.0
11:08:38.711;6210734.0;6122843.0
11:08:38.751;6210558.0;6122492.0
11:08:38.791;6209986.0;6122144.0
11:08:38.831;6209023.0;6120831.0
11:08:38.871;6209056.0;6120377.0
11:08:38.911;6208000.0;6119592.0
11:08:38.951;6207441.0;6119609.0
11:08:38.991;6210849.0;6131766.0
11:08:39.031;6207029.0;6121506.0
11:08:39.071;6206613.0;6116471.0
11:08:39.111;6206659.0;6115989.0
11:08:39.151;6206017.0;6116346.0
11:08:39.191;6206212.0;6115989.0
11:08:39.231;6206051.0;6116621.0
11:08:39.271;6205899.0;6117388.0
11:08:39.311;6206597.0;6117663.0
11:08:39.351;6205626.0;6117441.0
11:08:39.391;6205285.0;6116890.0
11:08:39.431;6205324.0;6115919.0
11:08:39.471;6211795.0;6129433.0
11:08:39.511;6203150.0;6118518.0
11:08:39.551;6204701.0;6115093.0
11:08:39.591;6204585.0;6113541.0
11:08:39.631;6203585.0;6112128.0
11:08:39.671;6204073.0;6113396.0
11:08:39.711;6203538.0;6114873.0
11:08:39.751;6203589.0;6115202.0
11:08:39.791;6203758.0;6114402.0
11:08:39.831;6203796.0;6122710.0
11:08:39.871;6202891.0;6116625.0
11:08:39.911;6202609.0;6112597.0
11:08:39.951;6202579.0;6111958.0
11:08:39.991;6202975.0;6111556.0
11:08:40.031;6202982.0;6111345.0
11:08:40.071;6202244.0;6113112.0
11:08:40.111;6202490.0;6114434.0
11:08:40.151;6202799.0;6114390.0
11:08:40.191;6202789.0;6113845.0
11:08:40.231;6208293.0;6124998.0
11:08:40.271;6201175.0;6113697.0
11:08:40.311;6201583.0;6112108.0
11:08:40.351;6201519.0;6111786.0
11:08:40.391;6201643.0;6111328.0
11:08:40.431;6201338.0;6111639.0
11:08:40.471;6201301.0;6113574.0
11:08:40.511;6201674.0;6113769.0
11:08:40.551;6201506.0;6113607.0
11:08:40.591;6201862.0;6113780.0
11:08:40.631;6207353.0;6123341.0
11:08:40.671;6200686.0;6113380.0
11:08:40.711;6200741.0;6111360.0
11:08:40.751;6200952.0;6111022.0
11:08:40.791;6200755.0;6111007.0
11:08:40.831;6200749.0;6111394.0
11:08:40.871;6200859.0;6113003.0
11:08:40.911;6200567.0;6113872.0
11:08:40.951;6200473.0;6113993.0
11:08:40.991;6206973.0;6123819.0
11:08:41.031;6199555.0;6113872.0
11:08:41.071;6199970.0;6111851.0
11:08:41.111;6199498.0;6111318.0
11:08:41.151;6199945.0;6110630.0
11:08:41.191;6200076.0;6111241.0
11:08:41.231;6199909.0;6113338.0
11:08:41.271;6200100.0;6114106.0
11:08:41.311;6200265.0;6113673.0
11:08:41.351;6200434.0;6113366.0
11:08:41.391;6203893.0;6126246.0
11:08:41.431;6200182.0;6117450.0
11:08:41.471;6200493.0;6112580.0
11:08:41.511;6200714.0;6112010.0
11:08:41.551;6200874.0;6113103.0
11:08:41.891;6201143.0;6113760.0
11:08:41.931;6202609.0;6116271.0
11:08:41.971;6201749.0;6116221.0
11:08:42.011;6202407.0;6116957.0
11:08:42.051;6202372.0;6116811.0
11:08:42.091;6202069.0;6116463.0
11:08:42.131;6204373.0;6126276.0
11:08:42.171;6202588.0;6119836.0
11:08:42.211;6201745.0;6115884.0
11:08:42.251;6201967.0;6115774.0
11:08:42.291;6202425.0;6115182.0
11:08:42.331;6201789.0;6115168.0
11:08:42.371;6202083.0;6116866.0
11:08:42.411;6202280.0;6117767.0
11:08:42.451;6202314.0;6117440.0
11:08:42.491;6207208.0;6124508.0
11:08:42.531;6201078.0;6117179.0
11:08:42.571;6201382.0;6115407.0
11:08:42.611;6201803.0;6115013.0
11:08:42.651;6201833.0;6115548.0
11:08:42.691;6201621.0;6115804.0
11:08:42.731;6202070.0;6117441.0
11:08:42.771;6202501.0;6117975.0
11:08:42.811;6201780.0;6118117.0
11:08:42.851;6202337.0;6118482.0
11:08:42.891;6202475.0;6117785.0
11:08:42.931;6202095.0;6118231.0
11:08:42.971;6201671.0;6118201.0
11:08:43.011;6202315.0;6118446.0
11:08:43.051;6202024.0;6117932.0
11:08:43.091;6201867.0;6118399.0
11:08:43.131;6206618.0;6126064.0
11:08:43.171;6200821.0;6117414.0
11:08:43.211;6200958.0;6115969.0
11:08:43.251;6201307.0;6116588.0
11:08:43.291;6201481.0;6116050.0
11:08:43.331;6201535.0;6115936.0
11:08:43.371;6201295.0;6117695.0
11:08:43.411;6201682.0;6118979.0
11:08:43.451;6201661.0;6118398.0
11:08:43.491;6201171.0;6118019.0
11:08:43.531;6201319.0;6118368.0
11:08:43.571;6201506.0;6123784.0
11:08:43.611;6202475.0;6121262.0
11:08:43.651;6200101.0;6116006.0
11:08:43.691;6200908.0;6116247.0
11:08:43.731;6200386.0;6116393.0
11:08:43.771;6200105.0;6115389.0
11:08:43.811;6200156.0;6116423.0
11:08:43.851;6200726.0;6117441.0
11:08:43.891;6200050.0;6117352.0
11:08:43.931;6199766.0;6117540.0
11:08:43.971;6199977.0;6117167.0
11:08:44.011;6200172.0;6116480.0
11:08:44.051;6206755.0;6129849.0
11:08:44.091;6198018.0;6118494.0
11:08:44.131;6198813.0;6114884.0
11:08:44.171;6198793.0;6113857.0
11:08:44.211;6198041.0;6113554.0
11:08:44.251;6198268.0;6114259.0
11:08:44.291;6198749.0;6115697.0
11:08:44.331;6198952.0;6116297.0
11:08:44.371;6198301.0;6116131.0
11:08:44.411;6198827.0;6115642.0
11:08:44.451;6200425.0;6126273.0
11:08:44.491;6197121.0;6119598.0
11:08:44.531;6197983.0;6114410.0
11:08:44.571;6198462.0;6114431.0
11:08:44.611;6198087.0;6114028.0
11:08:44.651;6198153.0;6113266.0
11:08:44.691;6197948.0;6115314.0
11:08:44.731;6198051.0;6116826.0
11:08:44.771;6197891.0;6116636.0
11:08:44.811;6198508.0;6115668.0
11:08:44.851;6198351.0;6116393.0
11:08:44.891;6198065.0;6116724.0
11:08:44.931;6197613.0;6116959.0
11:08:44.971;6198310.0;6115798.0
11:08:45.011;6197966.0;6115558.0
11:08:45.051;6197836.0;6115937.0
11:08:45.091;6197325.0;6116827.0
11:08:45.131;6198133.0;6116879.0
11:08:45.171;6197948.0;6116088.0
11:08:45.211;6197286.0;6115934.0
11:08:45.251;6197883.0;6116582.0
11:08:45.291;6197447.0;6117031.0
11:08:45.331;6204817.0;6129312.0
11:08:45.371;6196258.0;6117727.0
11:08:45.411;6197208.0;6114907.0
11:08:45.451;6196930.0;6115634.0
11:08:45.491;6197113.0;6115393.0
11:08:45.531;6196790.0;6114839.0
11:08:45.571;6197035.0;6116159.0
11:08:45.611;6196990.0;6118035.0
11:08:45.651;6197332.0;6118185.0
11:08:45.691;6197074.0;6117492.0
11:08:45.731;6197523.0;6117737.0
11:08:45.771;6199484.0;6122137.0
11:08:45.811;6196369.0;6116771.0
11:08:45.851;6196552.0;6116047.0
11:08:46.193;6196717.0;6115314.0
11:08:46.233;6196186.0;6118443.0
11:08:46.273;6202237.0;6128147.0
11:08:46.313;6194665.0;6117490.0
11:08:46.353;6195653.0;6115795.0
11:08:46.393;6195057.0;6115879.0
11:08:46.433;6195125.0;6115523.0
11:08:46.473;6195328.0;6115750.0
11:08:46.513;6195606.0;6117628.0
11:08:46.553;6195143.0;6118018.0
11:08:46.593;6195346.0;6117897.0
11:08:46.633;6195250.0;6118153.0
11:08:46.673;6194852.0;6117521.0
11:08:46.713;6195327.0;6117578.0
11:08:46.753;6194875.0;6118019.0
11:08:46.793;6202848.0;6131053.0
11:08:46.833;6192979.0;6118476.0
11:08:46.873;6194795.0;6115656.0
11:08:46.913;6194036.0;6116054.0
11:08:46.953;6193878.0;6115736.0
11:08:46.993;6194334.0;6115757.0
11:08:47.033;6194256.0;6117340.0
11:08:47.073;6194564.0;6118112.0
11:08:47.113;6194013.0;6118225.0
11:08:47.153;6193960.0;6117810.0
11:08:47.193;6194017.0;6118143.0
11:08:47.233;6195430.0;6126785.0
11:08:47.273;6193406.0;6121005.0
11:08:47.313;6193212.0;6116501.0
11:08:47.353;6193560.0;6116459.0
11:08:47.393;6193451.0;6116362.0
11:08:47.433;6193060.0;6115334.0
11:08:47.473;6193129.0;6117118.0
11:08:47.513;6193515.0;6118632.0
11:08:47.553;6193428.0;6118557.0
11:08:47.593;6193593.0;6118659.0
11:08:47.633;6198297.0;6131037.0
11:08:47.673;6191776.0;6119709.0
11:08:47.713;6192887.0;6116875.0
11:08:47.753;6192834.0;6116795.0
11:08:47.793;6192894.0;6116285.0
11:08:47.833;6192190.0;6116367.0
11:08:47.873;6192524.0;6118023.0
11:08:47.913;6192834.0;6118873.0
11:08:47.953;6192697.0;6123295.0
11:08:47.993;6193940.0;6121302.0
11:08:48.033;6191889.0;6117211.0
11:08:48.073;6191947.0;6116416.0
11:08:48.113;6192043.0;6116291.0
11:08:48.153;6191999.0;6116447.0
11:08:48.193;6191592.0;6118018.0
11:08:48.233;6192061.0;6119469.0
11:08:48.273;6191790.0;6119006.0
11:08:48.313;6191439.0;6118755.0
11:08:48.353;6193863.0;6129329.0
11:08:48.393;6190807.0;6121794.0
11:08:48.433;6191023.0;6117255.0
11:08:48.473;6191151.0;6116780.0
11:08:48.513;6190948.0;6116095.0
11:08:48.553;6190531.0;6117197.0
11:08:48.593;6190969.0;6118426.0
11:08:48.633;6190947.0;6119003.0
11:08:48.673;6190862.0;6118764.0
11:08:48.713;6190876.0;6119902.0
11:08:48.753;6190640.0;6119617.0
11:08:48.793;6190137.0;6118722.0
11:08:48.833;6190258.0;6118730.0
11:08:48.873;6189789.0;6119267.0
11:08:48.913;6190149.0;6119159.0
11:08:48.953;6189377.0;6118067.0
11:08:48.993;6190191.0;6119153.0
11:08:49.033;6189856.0;6119718.0
11:08:49.073;6189457.0;6119313.0
11:08:49.113;6189299.0;6118700.0
11:08:49.153;6192376.0;6129452.0
11:08:49.193;6189459.0;6122314.0
11:08:49.233;6188834.0;6117978.0
11:08:49.273;6188634.0;6117468.0
11:08:49.313;6188830.0;6117318.0
11:08:49.353;6188868.0;6117171.0
11:08:49.393;6188489.0;6118193.0
11:08:49.433;6188770.0;6119840.0
11:08:49.473;6189031.0;6119618.0
11:08:49.513;6189244.0;6120103.0
11:08:49.553;6193272.0;6123487.0
11:08:49.593;6188179.0;6118294.0
11:08:49.633;6188450.0;6117477.0
11:08:49.673;6188489.0;6117487.0
11:08:49.713;6187803.0;6117552.0
11:08:49.753;6188277.0;6118311.0
11:08:49.793;6188543.0;6119671.0
11:08:49.833;6188301.0;6120053.0
11:08:49.873;6188078.0;6124859.0
11:08:49.913;6189929.0;6124481.0
11:08:49.953;6187240.0;6117460.0
11:08:49.993;6187394.0;6117275.0
11:08:50.033;6187020.0;6118094.0
11:08:50.073;6187349.0;6117709.0
11:08:50.113;6187259.0;6118261.0
11:08:50.153;6187299.0;6119430.0
11:08:50.699;6186898.0;6120586.0
11:08:50.739;6194111.0;6130815.0
11:08:50.779;6184856.0;6119444.0
11:08:50.819;6185129.0;6118077.0
11:08:50.859;6186002.0;6118143.0
11:08:50.899;6185471.0;6117277.0
11:08:50.939;6185543.0;6117475.0
11:08:50.979;6184946.0;6119013.0
11:08:51.019;6185880.0;6120233.0
11:08:51.059;6185378.0;6119728.0
11:08:51.099;6185688.0;6119973.0
11:08:51.139;6188088.0;6122670.0
11:08:51.179;6184586.0;6118429.0
11:08:51.219;6184199.0;6117245.0
11:08:51.259;6184233.0;6117120.0
11:08:51.299;6183460.0;6117003.0
11:08:51.339;6184235.0;6118165.0
11:08:51.379;6184074.0;6119208.0
11:08:51.419;6183659.0;6119485.0
11:08:51.459;6183210.0;6119405.0
11:08:51.499;6184062.0;6121187.0
11:08:51.539;6186791.0;6123810.0
11:08:51.579;6182687.0;6117256.0
11:08:51.619;6181830.0;6116769.0
11:08:51.659;6182284.0;6116991.0
11:08:51.699;6182563.0;6116227.0
11:08:51.739;6182229.0;6116669.0
11:08:51.779;6181800.0;6118743.0
11:08:51.819;6182042.0;6119389.0
11:08:51.859;6181942.0;6118585.0
11:08:51.899;6181539.0;6118466.0
11:08:51.939;6181393.0;6118185.0
11:08:51.979;6181204.0;6119026.0
11:08:52.019;6181314.0;6118745.0
11:08:52.059;6180931.0;6118078.0
11:08:52.099;6180834.0;6117709.0
11:08:52.139;6187288.0;6130838.0
11:08:52.179;6179355.0;6120048.0
11:08:52.219;6180099.0;6116589.0
11:08:52.259;6179716.0;6115736.0
11:08:52.299;6179213.0;6115272.0
11:08:52.339;6179307.0;6116076.0
11:08:52.379;6179566.0;6117555.0
11:08:52.419;6179659.0;6118208.0
11:08:52.459;6179434.0;6117453.0
11:08:52.499;6179508.0;6117791.0
11:08:52.539;6179457.0;6118069.0
11:08:52.579;6179232.0;6117951.0
11:08:52.619;6183790.0;6129748.0
11:08:52.659;6177042.0;6119704.0
11:08:52.699;6178522.0;6116694.0
11:08:52.739;6178457.0;6115839.0
11:08:52.779;6178180.0;6115378.0
11:08:52.819;6177914.0;6114902.0
11:08:52.859;6178491.0;6117679.0
11:08:52.899;6178060.0;6118373.0
11:08:52.939;6177758.0;6117736.0
11:08:52.979;6177760.0;6117096.0
11:08:53.019;6177644.0;6117901.0
11:08:53.059;6181860.0;6130720.0
11:08:53.099;6176506.0;6120065.0
11:08:53.139;6176979.0;6115206.0
11:08:53.179;6176649.0;6115050.0
11:08:53.219;6176807.0;6115829.0
11:08:53.259;6176667.0;6115103.0
11:08:53.299;6176490.0;6116337.0
11:08:53.339;6176218.0;6116905.0
11:08:53.379;6176462.0;6117848.0
11:08:53.419;6176629.0;6117003.0
11:08:53.459;6176328.0;6116834.0
11:08:53.499;6176091.0;6117093.0
11:08:53.539;6175494.0;6117479.0
11:08:53.579;6179353.0;6127910.0
11:08:53.619;6175780.0;6119617.0
11:08:53.659;6175338.0;6115083.0
11:08:53.699;6174875.0;6115145.0
11:08:53.739;6174735.0;6115541.0
11:08:53.779;6175185.0;6115171.0
11:08:53.819;6175466.0;6115976.0
11:08:53.859;6174927.0;6117044.0
11:08:53.899;6174609.0;6116897.0
11:08:53.939;6174877.0;6117448.0
11:08:53.979;6174779.0;6116975.0
11:08:54.019;6174067.0;6116606.0
11:08:54.059;6173648.0;6116919.0
11:08:54.099;6179295.0;6124091.0
11:08:54.139;6173103.0;6116058.0
11:08:54.179;6173798.0;6114558.0
11:08:54.219;6172801.0;6114399.0
11:08:54.259;6172839.0;6115185.0
11:08:54.299;6173153.0;6115203.0
11:08:54.339;6173591.0;6116656.0
11:08:54.379;6172567.0;6116429.0
11:08:54.419;6172770.0;6117171.0
11:08:54.459;6174054.0;6117371.0
11:08:54.499;6172702.0;6116277.0
11:08:54.539;6171853.0;6116116.0
11:08:54.579;6171876.0;6116867.0
11:08:54.619;6172044.0;6116893.0
11:08:54.659;6171886.0;6116485.0
11:08:55.002;6179405.0;6129306.0
11:08:55.042;6170645.0;6116517.0
11:08:55.082;6169953.0;6115871.0
11:08:55.122;6170123.0;6116044.0
11:08:55.162;6170127.0;6116693.0
11:08:55.202;6169787.0;6116169.0
11:08:55.242;6176400.0;6127575.0
11:08:55.282;6167543.0;6114991.0
11:08:55.322;6169256.0;6114761.0
11:08:55.362;6169140.0;6114063.0
11:08:55.402;6168882.0;6113301.0
11:08:55.442;6168746.0;6113585.0
11:08:55.482;6168859.0;6116454.0
11:08:55.522;6168847.0;6115819.0
11:08:55.562;6168562.0;6114701.0
11:08:55.602;6167736.0;6116723.0
11:08:55.642;6171525.0;6119339.0
11:08:55.682;6167923.0;6114350.0
11:08:55.722;6167918.0;6112774.0
11:08:55.762;6167452.0;6112006.0
11:08:55.802;6167472.0;6113431.0
11:08:55.842;6167313.0;6114165.0
11:08:55.882;6167533.0;6114745.0
11:08:55.922;6167441.0;6114032.0
11:08:55.962;6167113.0;6115657.0
11:08:56.002;6167524.0;6115753.0
11:08:56.042;6167395.0;6114819.0
11:08:56.082;6167059.0;6113669.0
11:08:56.122;6166598.0;6115020.0
11:08:56.162;6166851.0;6115002.0
11:08:56.202;6166714.0;6114294.0
11:08:56.242;6166079.0;6113263.0
11:08:56.282;6166030.0;6114530.0
11:08:56.322;6166237.0;6114540.0
11:08:56.362;6166460.0;6116167.0
11:08:56.402;6169270.0;6117356.0
11:08:56.442;6165218.0;6112750.0
11:08:56.482;6165243.0;6112364.0
11:08:56.522;6165013.0;6111641.0
11:08:56.562;6164925.0;6111245.0
11:08:56.602;6164218.0;6112086.0
11:08:56.642;6165151.0;6113796.0
11:08:56.682;6164979.0;6113705.0
11:08:56.722;6164799.0;6113264.0
11:08:56.762;6164119.0;6113360.0
11:08:56.802;6165748.0;6121503.0
11:08:56.842;6163736.0;6116469.0
11:08:56.882;6163974.0;6110937.0
11:08:56.922;6163123.0;6110654.0
11:08:56.962;6163679.0;6111579.0
11:08:57.002;6163524.0;6110347.0
11:08:57.042;6163649.0;6111016.0
11:08:57.082;6163159.0;6112402.0
11:08:57.122;6163437.0;6113611.0
11:08:57.162;6163275.0;6112712.0
11:08:57.202;6163220.0;6111980.0
11:08:57.242;6162256.0;6111598.0
11:08:57.282;6162663.0;6113133.0
11:08:57.322;6162730.0;6112683.0
11:08:57.362;6162518.0;6111817.0
11:08:57.402;6166614.0;6123058.0
11:08:57.442;6161706.0;6115441.0
11:08:57.482;6161894.0;6111039.0
11:08:57.522;6161585.0;6110300.0
11:08:57.562;6161094.0;6109199.0
11:08:57.602;6160936.0;6109884.0
11:08:57.642;6160897.0;6110710.0
11:08:57.682;6161101.0;6111509.0
11:08:57.722;6160844.0;6111080.0
11:08:57.762;6162197.0;6120723.0
11:08:57.802;6160317.0;6114252.0
11:08:57.842;6160335.0;6109675.0
11:08:57.882;6160028.0;6109069.0
11:08:57.922;6160357.0;6109084.0
11:08:57.962;6160759.0;6108562.0
11:08:58.002;6160062.0;6109560.0
11:08:58.042;6159867.0;6111248.0
11:08:58.082;6160001.0;6111593.0
11:08:58.122;6160413.0;6110852.0
11:08:58.162;6159696.0;6110352.0
11:08:58.202;6158854.0;6110241.0
11:08:58.242;6159551.0;6110989.0
11:08:58.282;6159135.0;6110409.0
11:08:58.322;6162552.0;6119727.0
11:08:58.362;6157900.0;6112012.0
11:08:58.402;6158332.0;6109380.0
11:08:58.442;6158351.0;6108433.0
11:08:58.482;6158090.0;6107671.0
11:08:58.522;6157521.0;6107098.0
11:08:58.562;6157732.0;6109055.0
11:08:58.602;6157838.0;6109856.0
11:08:58.642;6157622.0;6109207.0
11:08:58.682;6157229.0;6108383.0
11:08:58.722;6162493.0;6116635.0
11:08:58.762;6156251.0;6108843.0
11:08:58.802;6156732.0;6107191.0
11:08:58.842;6156401.0;6106146.0
11:08:58.882;6156267.0;6106367.0
11:08:58.922;6156206.0;6106714.0
11:08:58.962;6155982.0;6108121.0
11:08:59.303;6156180.0;6109306.0
11:08:59.343;6154759.0;6105818.0
11:08:59.383;6154469.0;6105606.0
11:08:59.423;6155135.0;6107715.0
11:08:59.463;6155147.0;6108798.0
11:08:59.503;6154899.0;6108212.0
11:08:59.543;6154506.0;6107738.0
11:08:59.583;6154774.0;6108214.0
11:08:59.623;6160991.0;6120702.0
11:08:59.663;6152584.0;6109399.0
11:08:59.703;6153508.0;6106252.0
11:08:59.743;6154135.0;6105413.0
11:08:59.783;6153645.0;6104631.0
11:08:59.823;6153483.0;6105073.0
11:08:59.863;6153188.0;6107479.0
11:08:59.903;6153570.0;6107524.0
11:08:59.943;6153253.0;6106448.0
11:08:59.983;6153472.0;6110458.0
11:09:00.023;6156667.0;6108796.0
11:09:00.063;6152506.0;6105446.0
11:09:00.103;6152398.0;6104556.0
11:09:00.143;6151666.0;6104179.0
11:09:00.183;6151110.0;6104133.0
11:09:00.223;6151579.0;6105836.0
11:09:00.263;6152288.0;6106605.0
11:09:00.303;6151855.0;6106739.0
11:09:00.343;6151653.0;6105927.0
11:09:00.383;6151641.0;6106273.0
11:09:00.423;6151956.0;6106267.0
11:09:00.463;6151566.0;6106367.0
11:09:00.503;6157320.0;6118572.0
11:09:00.543;6149889.0;6107964.0
11:09:00.583;6150877.0;6103947.0
11:09:00.623;6150191.0;6103848.0
11:09:00.663;6150010.0;6102784.0
11:09:00.703;6149956.0;6103037.0
11:09:00.743;6150640.0;6104555.0
11:09:00.783;6150298.0;6105485.0
11:09:00.823;6149798.0;6104677.0
11:09:00.863;6150028.0;6105135.0
11:09:00.903;6150018.0;6104698.0
11:09:00.943;6149784.0;6104256.0
11:09:00.983;6148691.0;6104411.0
11:09:01.023;6149411.0;6104537.0
11:09:01.063;6155168.0;6110837.0
11:09:01.103;6148037.0;6102994.0
11:09:01.143;6148560.0;6101627.0
11:09:01.183;6148655.0;6102645.0
11:09:01.223;6148371.0;6102279.0
11:09:01.263;6148451.0;6102954.0
11:09:01.303;6148842.0;6104370.0
11:09:01.343;6148953.0;6104999.0
11:09:01.383;6148848.0;6104736.0
11:09:01.423;6148734.0;6104309.0
11:09:01.463;6148891.0;6104190.0
11:09:01.503;6149024.0;6104726.0
11:09:01.543;6153758.0;6110377.0
11:09:01.583;6147922.0;6103134.0
11:09:01.623;6148788.0;6102470.0
11:09:01.663;6149700.0;6102840.0
11:09:01.703;6149459.0;6102778.0
11:09:01.743;6149940.0;6103610.0
11:09:01.783;6150405.0;6105344.0
11:09:01.823;6150955.0;6104900.0
11:09:01.863;6150699.0;6105514.0
11:09:01.903;6150818.0;6105759.0
11:09:01.943;6151362.0;6111835.0
11:09:01.983;6153129.0;6108742.0
11:09:02.023;6151995.0;6104292.0
11:09:02.063;6151460.0;6104163.0
11:09:02.103;6151749.0;6103755.0
11:09:02.143;6152672.0;6103516.0
11:09:02.183;6152940.0;6105011.0
11:09:02.223;6153045.0;6106279.0
11:09:02.263;6152800.0;6106129.0
11:09:02.303;6153873.0;6106414.0
11:09:02.343;6153840.0;6106930.0
11:09:02.383;6153769.0;6107357.0
11:09:02.423;6153753.0;6106241.0
11:09:02.463;6154367.0;6106440.0
11:09:02.503;6162129.0;6117974.0
11:09:02.543;6153178.0;6106873.0
11:09:02.583;6154282.0;6104934.0
11:09:02.623;6154496.0;6104387.0
11:09:02.663;6153903.0;6103851.0
11:09:02.703;6154136.0;6104369.0
11:09:02.743;6154504.0;6106362.0
11:09:02.783;6155353.0;6106966.0
11:09:02.823;6155234.0;6106726.0
11:09:02.863;6155285.0;6106497.0
11:09:02.903;6155164.0;6106652.0
11:09:02.943;6155043.0;6106976.0
11:09:02.983;6155504.0;6107341.0
11:09:03.023;6158743.0;6117783.0
11:09:03.063;6155378.0;6109610.0
11:09:03.103;6154280.0;6105061.0
11:09:03.143;6155848.0;6105696.0
11:09:03.183;6155025.0;6104750.0
11:09:03.223;6154837.0;6104762.0
11:09:03.263;6155048.0;6106111.0
11:09:03.605;6155438.0;6108164.0
11:09:03.645;6155738.0;6104824.0
11:09:03.685;6155894.0;6105567.0
11:09:03.725;6155856.0;6107040.0
11:09:03.765;6156489.0;6108149.0
11:09:03.805;6156558.0;6108145.0
11:09:03.845;6157109.0;6107933.0
11:09:03.885;6162260.0;6116468.0
11:09:03.925;6156270.0;6107411.0
11:09:03.965;6156456.0;6106044.0
11:09:04.005;6156347.0;6105423.0
11:09:04.045;6156113.0;6104539.0
11:09:04.085;6156429.0;6106831.0
11:09:04.125;6156792.0;6107345.0
11:09:04.165;6156116.0;6107083.0
11:09:04.205;6156250.0;6109684.0
11:09:04.245;6157595.0;6111141.0
11:09:04.285;6156356.0;6105565.0
11:09:04.325;6155537.0;6104276.0
11:09:04.365;6154989.0;6103700.0
11:09:04.405;6155489.0;6104834.0
11:09:04.445;6155973.0;6105724.0
11:09:04.485;6155593.0;6106416.0
11:09:04.525;6155008.0;6106341.0
11:09:04.565;6155568.0;6106463.0
11:09:04.605;6155289.0;6106202.0
11:09:04.645;6154664.0;6105299.0
11:09:04.685;6154623.0;6106109.0
11:09:04.725;6158070.0;6116464.0
11:09:04.765;6154618.0;6107618.0
11:09:04.805;6154412.0;6103429.0
11:09:04.845;6153700.0;6103430.0
11:09:04.885;6153998.0;6103289.0
11:09:04.925;6153969.0;6103122.0
11:09:04.965;6154066.0;6103913.0
11:09:05.005;6153746.0;6103829.0
11:09:05.045;6154105.0;6104723.0
11:09:05.085;6153994.0;6104760.0
11:09:05.125;6153972.0;6104403.0
11:09:05.165;6153620.0;6103534.0
11:09:05.205;6153746.0;6104208.0
11:09:05.245;6153475.0;6104251.0
11:09:05.285;6153386.0;6104111.0
11:09:05.325;6153060.0;6103050.0
11:09:05.365;6155931.0;6112900.0
11:09:05.405;6153265.0;6105888.0
11:09:05.445;6152473.0;6101768.0
11:09:05.485;6153057.0;6100993.0
11:09:05.525;6152604.0;6100421.0
11:09:05.565;6152156.0;6100969.0
11:09:05.605;6152209.0;6102113.0
11:09:05.645;6153019.0;6103101.0
11:09:05.685;6153306.0;6104282.0
11:09:05.725;6154891.0;6105969.0
11:09:05.765;6151525.0;6101191.0
11:09:05.805;6152302.0;6100076.0
11:09:05.845;6151962.0;6099931.0
11:09:05.885;6151500.0;6100283.0
11:09:05.925;6151502.0;6101303.0
11:09:05.965;6152702.0;6102577.0
11:09:06.005;6152245.0;6101742.0
11:09:06.045;6151323.0;6101844.0
11:09:06.085;6151324.0;6101955.0
11:09:06.125;6156818.0;6114842.0
11:09:06.165;6150182.0;6103512.0
11:09:06.205;6150470.0;6100026.0
11:09:06.245;6151191.0;6100087.0
11:09:06.285;6151089.0;6099558.0
11:09:06.325;6150919.0;6099601.0
11:09:06.365;6150717.0;6100693.0
11:09:06.405;6150963.0;6101380.0
11:09:06.445;6150867.0;6101215.0
11:09:06.485;6150834.0;6101115.0
11:09:06.525;6155563.0;6114154.0
11:09:06.565;6149729.0;6103597.0
11:09:06.605;6150501.0;6099484.0
11:09:06.645;6150406.0;6099067.0
11:09:06.685;6150024.0;6098721.0
11:09:06.725;6150456.0;6099680.0
11:09:06.765;6150438.0;6100777.0
11:09:06.805;6150254.0;6100987.0
11:09:06.845;6150169.0;6101232.0
11:09:06.885;6150432.0;6102185.0
11:09:06.925;6150719.0;6102028.0
11:09:06.965;6156546.0;6112022.0
11:09:07.005;6149113.0;6100994.0
11:09:07.045;6150103.0;6100318.0
11:09:07.085;6150213.0;6099567.0
11:09:07.125;6149672.0;6099066.0
11:09:07.165;6149649.0;6099456.0
11:09:07.205;6150479.0;6102049.0
11:09:07.245;6150566.0;6102021.0
11:09:07.285;6150472.0;6102042.0
11:09:07.325;6150266.0;6103164.0
11:09:07.365;6154300.0;6105978.0
11:09:07.405;6150267.0;6100876.0
11:09:07.445;6150147.0;6100538.0
11:09:07.485;6150425.0;6100927.0
11:09:07.525;6150955.0;6100198.0
11:09:07.565;6151427.0;6101448.0
11:09:09.134;6151391.0;6103542.0
11:09:09.174;6152290.0;6102757.0
11:09:09.214;6152001.0;6101905.0
11:09:09.254;6152723.0;6102007.0
11:09:09.294;6153145.0;6103635.0
11:09:09.334;6153641.0;6105718.0
11:09:09.374;6153256.0;6105546.0
11:09:09.414;6154327.0;6105577.0
11:09:09.454;6154195.0;6106273.0
11:09:09.494;6154009.0;6106575.0
11:09:09.534;6154581.0;6106157.0
11:09:09.574;6163434.0;6119643.0
11:09:09.614;6153313.0;6108114.0
11:09:09.654;6154649.0;6105611.0
11:09:09.694;6155003.0;6105131.0
11:09:09.734;6155101.0;6105066.0
11:09:09.774;6155115.0;6106107.0
11:09:09.814;6155351.0;6107536.0
11:09:09.854;6156298.0;6108386.0
11:09:09.894;6161560.0;6119759.0
11:09:09.934;6154100.0;6109329.0
11:09:09.974;6155672.0;6106525.0
11:09:10.014;6156429.0;6106500.0
11:09:10.054;6156226.0;6106178.0
11:09:10.094;6156641.0;6107061.0
11:09:10.134;6157065.0;6108942.0
11:09:10.174;6157151.0;6109070.0
11:09:10.214;6156758.0;6109047.0
11:09:10.254;6156761.0;6109231.0
11:09:10.294;6157574.0;6109876.0
11:09:10.334;6157510.0;6109251.0
11:09:10.374;6156944.0;6109167.0
11:09:10.414;6157241.0;6109926.0
11:09:10.454;6157402.0;6110148.0
11:09:10.494;6157345.0;6109336.0
