'Elapsed time';'ECG1';'ECG2'
'0:00.000';-1.285;0.24
'0:00.004';0.42;0.28
'0:00.008';1.35;0.41
'0:00.012';-0.47;0.47
'0:00.016';-1.55;0.35
'0:00.020';0.2;0.395
'0:00.024';1.36;0.495
'0:00.028';-0.275;0.485
'0:00.032';-1.64;0.4
'0:00.036';-0.135;0.39
'0:00.040';1.47;0.505
'0:00.044';0.29;0.54
'0:00.048';-1.57;0.415
'0:00.052';-0.62;0.355
'0:00.056';1.27;0.395
'0:00.060';0.55;0.47
'0:00.064';-1.53;0.345
'0:00.068';-1.13;0.205
'0:00.072';0.915;0.25
'0:00.076';0.675;0.31
'0:00.080';-1.445;0.21
'0:00.084';-1.305;0.055
'0:00.088';0.765;0.06
'0:00.092';0.715;0.14
'0:00.096';-1.41;0.05
'0:00.100';-1.45;-0.105
'0:00.104';0.63;-0.105
'0:00.108';0.605;-0.015
'0:00.112';-1.465;-0.06
'0:00.116';-1.44;-0.19
'0:00.120';0.685;-0.13
'0:00.124';0.76;-0.08
'0:00.128';-1.375;-0.1
'0:00.132';-1.53;-0.195
'0:00.136';0.545;-0.17
'0:00.140';0.715;-0.09
'0:00.144';-1.315;-0.12
'0:00.148';-1.605;-0.21
'0:00.152';0.445;-0.16
'0:00.156';1.015;-0.055
'0:00.160';-0.91;-0.07
'0:00.164';-1.765;-0.21
'0:00.168';0.1;-0.18
'0:00.172';1.19;-0.06
'0:00.176';-0.48;-0.075
'0:00.180';-1.885;-0.195
'0:00.184';-0.375;-0.205
'0:00.188';1.14;-0.11
'0:00.192';-0.195;-0.025
'0:00.196';-1.83;-0.15
'0:00.200';-0.585;-0.195
'0:00.204';1.14;-0.09
'0:00.208';0.155;-0.035
'0:00.212';-1.685;-0.125
'0:00.216';-0.8;-0.18
'0:00.220';1.065;-0.12
'0:00.224';0.22;-0.03
'0:00.228';-1.675;-0.13
'0:00.232';-0.965;-0.21
'0:00.236';1.01;-0.12
'0:00.240';0.42;-0.055
'0:00.244';-1.58;-0.06
'0:00.248';-1.025;-0.16
'0:00.252';0.945;-0.11
'0:00.256';0.495;-0.03
'0:00.260';-1.53;-0.09
'0:00.264';-1.28;-0.16
'0:00.268';0.785;-0.105
'0:00.272';0.725;-0.02
'0:00.276';-1.32;-0.105
'0:00.280';-1.495;-0.21
'0:00.284';0.57;-0.165
'0:00.288';0.985;-0.06
'0:00.292';-1.015;-0.075
'0:00.296';-1.75;-0.21
'0:00.300';0.155;-0.205
'0:00.304';1.015;-0.07
'0:00.308';-0.875;-0.055
'0:00.312';-1.8;-0.2
'0:00.316';0.005;-0.2
'0:00.320';1.12;-0.09
'0:00.324';-0.515;-0.07
'0:00.328';-1.85;-0.24
'0:00.332';-0.245;-0.2
'0:00.336';1.165;-0.11
'0:00.340';-0.235;-0.08
'0:00.344';-1.795;-0.215
'0:00.348';-0.455;-0.25
'0:00.352';1.11;-0.15
'0:00.356';-0.15;-0.07
'0:00.360';-1.745;-0.145
'0:00.364';-0.42;-0.25
'0:00.368';1.13;-0.13
'0:00.372';-0.13;-0.1
'0:00.376';-1.76;-0.19
'0:00.380';-0.525;-0.225
'0:00.384';1.145;-0.125
'0:00.388';-0.045;-0.095
'0:00.392';-1.705;-0.21
'0:00.396';-0.505;-0.2
'0:00.400';1.21;-0.12
'0:00.404';0.105;-0.07
'0:00.408';-1.64;-0.17
'0:00.412';-0.575;-0.145
'0:00.416';1.235;0.015
'0:00.420';0.245;0.12
'0:00.424';-1.635;0.05
'0:00.428';-0.75;0.04
'0:00.432';1.26;0.11
'0:00.436';0.705;0.115
'0:00.440';-1.385;0
'0:00.444';-0.99;-0.175
'0:00.448';1.05;-0.115
'0:00.452';0.84;-0.095
'0:00.456';-1.29;-0.24
'0:00.460';-1.42;-0.35
'0:00.464';0.67;-0.31
'0:00.468';0.88;-0.16
'0:00.472';-1.2;-0.155
'0:00.476';-1.5;-0.285
'0:00.480';0.53;-0.27
'0:00.484';0.845;-0.155
'0:00.488';-1.225;-0.14
'0:00.492';-1.655;-0.25
'0:00.496';0.35;-0.255
'0:00.500';0.82;-0.18
'0:00.504';-1.185;-0.175
'0:00.508';-1.71;-0.32
'0:00.512';0.33;-0.3
'0:00.516';0.875;-0.19
'0:00.520';-1.09;-0.175
'0:00.524';-1.69;-0.31
'0:00.528';0.28;-0.305
'0:00.532';0.885;-0.185
'0:00.536';-1.045;-0.225
'0:00.540';-1.75;-0.295
'0:00.544';0.175;-0.28
'0:00.548';1.02;-0.135
'0:00.552';-0.87;0.05
'0:00.556';-1.855;0.135
'0:00.560';0.04;0.225
'0:00.564';1.59;0.315
'0:00.568';0.375;0.38
'0:00.572';-0.855;0.54
'0:00.576';0.72;0.11
'0:00.580';2.395;-0.585
'0:00.584';1.375;-1.195
'0:00.588';-0.93;-1.59
'0:00.592';-0.605;-1.96
'0:00.596';0.845;-2.17
'0:00.600';-0.265;-2.265
'0:00.604';-2.32;-2.665
'0:00.608';-1.43;-2.605
'0:00.612';0.73;-1.84
'0:00.616';0.275;-1.15
'0:00.620';-1.625;-0.735
'0:00.624';-1;-0.445
'0:00.628';0.925;-0.12
'0:00.632';0.315;0.035
'0:00.636';-1.645;-0.045
'0:00.640';-1.105;-0.11
'0:00.644';0.885;-0.05
'0:00.648';0.415;0.015
'0:00.652';-1.62;-0.025
'0:00.656';-1.345;-0.13
'0:00.660';0.76;-0.045
'0:00.664';0.755;0.035
'0:00.668';-1.355;-0.01
'0:00.672';-1.61;-0.095
'0:00.676';0.435;-0.06
'0:00.680';1.02;0.045
'0:00.684';-0.93;0.05
'0:00.688';-1.895;-0.105
'0:00.692';-0.115;-0.055
'0:00.696';1.18;0.065
'0:00.700';-0.37;0.09
'0:00.704';-1.91;-0.02
'0:00.708';-0.55;-0.015
'0:00.712';1.105;0.06
'0:00.716';0.07;0.12
'0:00.720';-1.77;0.05
'0:00.724';-0.775;-0.02
'0:00.728';1.09;0.13
'0:00.732';0.375;0.2
'0:00.736';-1.62;0.125
'0:00.740';-0.96;0.025
'0:00.744';1.005;0.145
'0:00.748';0.52;0.235
'0:00.752';-1.5;0.24
'0:00.756';-1.005;0.145
'0:00.760';1.025;0.22
'0:00.764';0.725;0.37
'0:00.768';-1.36;0.34
'0:00.772';-1.195;0.285
'0:00.776';0.94;0.34
'0:00.780';1.06;0.46
'0:00.784';-1;0.44
'0:00.788';-1.275;0.395
'0:00.792';0.745;0.44
'0:00.796';1.29;0.555
'0:00.800';-0.665;0.535
'0:00.804';-1.435;0.46
'0:00.808';0.465;0.515
'0:00.812';1.475;0.61
'0:00.816';-0.315;0.62
'0:00.820';-1.53;0.525
'0:00.824';0.085;0.52
'0:00.828';1.495;0.605
'0:00.832';0.02;0.62
'0:00.836';-1.57;0.51
'0:00.840';-0.3;0.435
'0:00.844';1.35;0.5
'0:00.848';0.24;0.53
'0:00.852';-1.59;0.365
'0:00.856';-0.59;0.265
'0:00.860';1.165;0.31
'0:00.864';0.145;0.345
'0:00.868';-1.72;0.205
'0:00.872';-0.865;0.08
'0:00.876';1.03;0.095
'0:00.880';0.27;0.135
'0:00.884';-1.695;0.035
'0:00.888';-1.02;-0.065
'0:00.892';0.99;-0.025
'0:00.896';0.505;0.035
'0:00.900';-1.55;-0.07
'0:00.904';-1.265;-0.165
'0:00.908';0.81;-0.135
'0:00.912';0.65;-0.035
'0:00.916';-1.435;-0.11
'0:00.920';-1.42;-0.2
'0:00.924';0.675;-0.17
'0:00.928';0.85;-0.04
'0:00.932';-1.25;-0.085
'0:00.936';-1.65;-0.235
'0:00.940';0.42;-0.185
'0:00.944';1.075;-0.08
'0:00.948';-0.885;-0.05
'0:00.952';-1.885;-0.215
'0:00.956';-0.05;-0.18
'0:00.960';1.215;-0.08
'0:00.964';-0.345;-0.045
'0:00.968';-1.83;-0.17
'0:00.972';-0.29;-0.2
'0:00.976';1.21;-0.07
'0:00.980';-0.15;-0.025
'0:00.984';-1.865;-0.125
'0:00.988';-0.71;-0.2
'0:00.992';1.115;-0.115
'0:00.996';0.265;-0.025
'0:01.000';-1.675;-0.1
'0:01.004';-1.025;-0.2
'0:01.008';1.02;-0.13
'0:01.012';0.68;-0.04
'0:01.016';-1.41;-0.09
'0:01.020';-1.415;-0.215
'0:01.024';0.68;-0.16
'0:01.028';0.805;-0.03
'0:01.032';-1.24;-0.065
'0:01.036';-1.605;-0.18
'0:01.040';0.405;-0.185
'0:01.044';0.96;-0.065
'0:01.048';-0.99;-0.065
'0:01.052';-1.735;-0.215
'0:01.056';0.145;-0.16
'0:01.060';1.14;-0.065
'0:01.064';-0.635;-0.065
'0:01.068';-1.89;-0.2
'0:01.072';-0.25;-0.215
'0:01.076';1.2;-0.12
'0:01.080';-0.12;-0.075
'0:01.084';-1.835;-0.15
'0:01.088';-0.71;-0.24
'0:01.092';1.125;-0.14
'0:01.096';0.295;-0.06
'0:01.100';-1.685;-0.14
'0:01.104';-1.18;-0.235
'0:01.108';0.855;-0.175
'0:01.112';0.645;-0.07
'0:01.116';-1.44;-0.12
'0:01.120';-1.475;-0.21
'0:01.124';0.63;-0.195
'0:01.128';1.01;-0.065
'0:01.132';-1.015;-0.07
'0:01.136';-1.58;-0.18
'0:01.140';0.37;-0.205
'0:01.144';0.985;-0.05
'0:01.148';-0.97;-0.06
'0:01.152';-1.7;-0.195
'0:01.156';0.195;-0.195
'0:01.160';1.02;-0.06
'0:01.164';-0.805;-0.085
'0:01.168';-1.71;-0.19
'0:01.172';0.17;-0.165
'0:01.176';1.19;-0.06
'0:01.180';-0.565;-0.07
'0:01.184';-1.675;-0.16
'0:01.188';0.065;-0.17
'0:01.192';1.285;-0.015
'0:01.196';-0.32;0.07
'0:01.200';-1.7;-0.025
'0:01.204';-0.245;-0.02
'0:01.208';1.36;0.1
'0:01.212';0.205;0.215
'0:01.216';-1.59;0.055
'0:01.220';-0.67;-0.05
'0:01.224';1.22;-0.035
'0:01.228';0.55;-0.005
'0:01.232';-1.52;-0.125
'0:01.236';-1.19;-0.3
'0:01.240';0.89;-0.305
'0:01.244';0.86;-0.19
'0:01.248';-1.23;-0.21
'0:01.252';-1.395;-0.295
'0:01.256';0.655;-0.275
'0:01.260';0.905;-0.16
'0:01.264';-1.21;-0.185
'0:01.268';-1.635;-0.26
'0:01.272';0.39;-0.235
'0:01.276';0.785;-0.145
'0:01.280';-1.22;-0.165
'0:01.284';-1.595;-0.29
'0:01.288';0.46;-0.245
'0:01.292';0.95;-0.14
'0:01.296';-1.055;-0.18
'0:01.300';-1.645;-0.295
'0:01.304';0.315;-0.285
'0:01.308';0.945;-0.165
'0:01.312';-0.985;-0.2
'0:01.316';-1.72;-0.3
'0:01.320';0.215;-0.27
'0:01.324';1.095;-0.16
'0:01.328';-0.77;-0.13
'0:01.332';-1.92;-0.175
'0:01.336';-0.255;0.02
'0:01.340';1.185;0.355
'0:01.344';-0.135;0.4
'0:01.348';-1.445;0.22
'0:01.352';0.125;0.36
'0:01.356';2.145;0.57
'0:01.360';1.605;0
'0:01.364';-0.05;-0.845
'0:01.368';0.665;-1.455
'0:01.372';1.805;-1.7
'0:01.376';0.36;-1.97
'0:01.380';-1.945;-2.445
'0:01.384';-1.585;-2.63
'0:01.388';0.55;-2.48
'0:01.392';-0.055;-2.105
'0:01.396';-1.94;-1.675
'0:01.400';-1.005;-1.045
'0:01.404';1.04;-0.495
'0:01.408';0.33;-0.135
'0:01.412';-1.625;-0.065
'0:01.416';-0.96;-0.1
'0:01.420';0.94;-0.005
'0:01.424';0.25;0.05
'0:01.428';-1.7;-0.03
'0:01.432';-1.155;-0.09
'0:01.436';0.885;-0.045
'0:01.440';0.49;0.055
'0:01.444';-1.53;-0.01
'0:01.448';-1.235;-0.095
'0:01.452';0.825;-0.035
'0:01.456';0.82;0.08
'0:01.460';-1.295;0.04
'0:01.464';-1.615;-0.1
'0:01.468';0.42;0.005
'0:01.472';1.03;0.105
'0:01.476';-0.92;0.085
'0:01.480';-1.705;-0.025
'0:01.484';0.22;-0.02
'0:01.488';1.155;0.09
'0:01.492';-0.635;0.145
'0:01.496';-1.79;0
'0:01.500';-0.1;-0.005
'0:01.504';1.12;0.105
'0:01.508';-0.49;0.155
'0:01.512';-1.76;0.055
'0:01.516';-0.16;0.07
'0:01.520';1.25;0.185
'0:01.524';-0.155;0.205
'0:01.528';-1.555;0.145
'0:01.532';-0.11;0.13
'0:01.536';1.265;0.275
'0:01.540';-0.18;0.315
'0:01.544';-1.645;0.23
'0:01.548';-0.215;0.19
'0:01.552';1.315;0.35
'0:01.556';0.005;0.415
'0:01.560';-1.555;0.34
'0:01.564';-0.25;0.355
'0:01.568';1.425;0.495
'0:01.572';0.32;0.545
'0:01.576';-1.43;0.435
'0:01.580';-0.33;0.425
'0:01.584';1.425;0.535
'0:01.588';0.525;0.605
'0:01.592';-1.36;0.51
'0:01.596';-0.54;0.43
'0:01.600';1.38;0.505
'0:01.604';0.765;0.59
'0:01.608';-1.315;0.55
'0:01.612';-0.875;0.44
'0:01.616';1.13;0.46
'0:01.620';0.855;0.53
'0:01.624';-1.255;0.45
'0:01.628';-1.275;0.3
'0:01.632';0.79;0.3
'0:01.636';1.035;0.395
'0:01.640';-1.03;0.335
'0:01.644';-1.415;0.14
'0:01.648';0.57;0.115
'0:01.652';0.995;0.175
'0:01.656';-1.045;0.105
'0:01.660';-1.65;-0.03
'0:01.664';0.28;-0.06
'0:01.668';0.935;-0.005
'0:01.672';-0.95;-0.02
'0:01.676';-1.675;-0.17
'0:01.680';0.23;-0.17
'0:01.684';1.035;-0.07
'0:01.688';-0.83;-0.105
'0:01.692';-1.745;-0.24
'0:01.696';0.13;-0.225
'0:01.700';1.065;-0.125
'0:01.704';-0.74;-0.105
'0:01.708';-1.765;-0.255
'0:01.712';0.015;-0.235
'0:01.716';1.19;-0.165
'0:01.720';-0.465;-0.115
'0:01.724';-1.84;-0.24
'0:01.728';-0.365;-0.25
'0:01.732';1.185;-0.145
'0:01.736';-0.07;-0.065
'0:01.740';-1.765;-0.145
'0:01.744';-0.7;-0.225
'0:01.748';1.25;-0.11
'0:01.752';0.58;-0.04
'0:01.756';-1.455;-0.055
'0:01.760';-0.945;0.045
'0:01.764';1.025;0.39
'0:01.768';0.735;0.605
'0:01.772';-1.395;0.63
'0:01.776';-1.47;0.14
'0:01.780';0.39;-0.585
'0:01.784';0.265;-1.645
'0:01.788';-1.865;-2.92
'0:01.792';-2.195;-3.455
'0:01.796';0.005;-3.82
'0:01.800';0.565;-4.275
'0:01.804';-1.305;-4.92
'0:01.808';-1.57;-5.11
'0:01.812';0.68;-4.755
'0:01.816';1.03;-4.285
'0:01.820';-1.01;-3.785
'0:01.824';-1.725;-3.225
'0:01.828';0.22;-2.52
'0:01.832';0.56;-2.11
'0:01.836';-1.515;-2.115
'0:01.840';-2.22;-2.11
'0:01.844';-0.07;-1.685
'0:01.848';0.685;-1.365
'0:01.852';-1.155;-1.14
'0:01.856';-2;-1.075
'0:01.860';-0.03;-0.765
'0:01.864';1.115;-0.475
'0:01.868';-0.525;-0.255
'0:01.872';-1.69;-0.13
'0:01.876';0.015;0.05
'0:01.880';1.33;0.265
'0:01.884';-0.155;0.355
'0:01.888';-1.715;0.315
'0:01.892';-0.375;0.345
'0:01.896';1.245;0.475
'0:01.900';0.06;0.54
'0:01.904';-1.65;0.45
'0:01.908';-0.52;0.435
'0:01.912';1.185;0.535
'0:01.916';0.13;0.605
'0:01.920';-1.545;0.56
'0:01.924';-0.3;0.545
'0:01.928';1.33;0.65
'0:01.932';0.075;0.74
'0:01.936';-1.525;0.665
'0:01.940';-0.22;0.685
'0:01.944';1.35;0.815
'0:01.948';0.09;0.92
'0:01.952';-1.455;0.865
'0:01.956';-0.15;0.85
'0:01.960';1.53;0.99
'0:01.964';0.385;1.175
'0:01.968';-1.26;1.17
'0:01.972';-0.1;1.23
'0:01.976';1.66;1.405
'0:01.980';0.665;1.56
'0:01.984';-1.05;1.565
'0:01.988';-0.065;1.535
'0:01.992';1.815;1.645
'0:01.996';1.12;1.785
'0:02.000';-0.895;1.75
'0:02.004';-0.39;1.635
'0:02.008';1.605;1.705
'0:02.012';1.22;1.795
'0:02.016';-0.815;1.81
'0:02.020';-0.63;1.74
'0:02.024';1.36;1.795
'0:02.028';1.265;1.87
'0:02.032';-0.86;1.745
'0:02.036';-0.765;1.55
'0:02.040';1.17;1.54
'0:02.044';0.98;1.53
'0:02.048';-1.115;1.36
'0:02.052';-1.085;1.12
'0:02.056';0.935;1.025
'0:02.060';0.83;1.02
'0:02.064';-1.23;0.83
'0:02.068';-1.245;0.63
'0:02.072';0.775;0.575
'0:02.076';0.78;0.565
'0:02.080';-1.28;0.425
'0:02.084';-1.45;0.25
'0:02.088';0.57;0.225
'0:02.092';0.82;0.255
'0:02.096';-1.205;0.16
'0:02.100';-1.675;0.015
'0:02.104';0.02;0.005
'0:02.108';0.255;0.02
'0:02.112';-0.495;-0.025
'0:02.116';-0.64;0.01
'0:02.120';-0.055;-0.045
'0:02.124';0.095;-0.14
'0:02.128';-0.545;-0.14
'0:02.132';-0.785;-0.06
'0:02.136';-0.2;-0.11
'0:02.140';0.12;-0.18
'0:02.144';-0.42;-0.225
'0:02.148';-0.77;-0.15
'0:02.152';-0.25;-0.135
'0:02.156';0.135;-0.205
'0:02.160';-0.345;-0.255
'0:02.164';-0.78;-0.16
'0:02.168';-0.355;-0.195
'0:02.172';0.09;-0.23
'0:02.176';-0.315;-0.25
'0:02.180';-0.765;-0.19
'0:02.184';-0.37;-0.185
'0:02.188';0.11;-0.25
'0:02.192';-0.28;-0.255
'0:02.196';-0.77;-0.22
'0:02.200';-0.435;-0.15
'0:02.204';0.115;-0.21
'0:02.208';-0.2;-0.26
'0:02.212';-0.775;-0.215
'0:02.216';-0.505;-0.15
'0:02.220';0.095;-0.195
'0:02.224';-0.115;-0.26
'0:02.228';-0.74;-0.22
'0:02.232';-0.57;-0.185
'0:02.236';0.06;-0.205
'0:02.240';-0.01;-0.255
'0:02.244';-0.69;-0.23
'0:02.248';-0.67;-0.16
'0:02.252';-0.035;-0.185
'0:02.256';0.065;-0.24
'0:02.260';-0.585;-0.225
'0:02.264';-0.73;-0.185
'0:02.268';-0.135;-0.175
'0:02.272';0.115;-0.27
'0:02.276';-0.425;-0.24
'0:02.280';-0.77;-0.18
'0:02.284';-0.23;-0.18
'0:02.288';0.14;-0.225
'0:02.292';-0.31;-0.26
'0:02.296';-0.72;-0.18
'0:02.300';-0.295;-0.165
'0:02.304';0.14;-0.23
'0:02.308';-0.235;-0.255
'0:02.312';-0.715;-0.215
'0:02.316';-0.295;-0.18
'0:02.320';0.135;-0.255
'0:02.324';-0.26;-0.28
'0:02.328';-0.72;-0.235
'0:02.332';-0.265;-0.17
'0:02.336';0.19;-0.27
'0:02.340';-0.265;-0.27
'0:02.344';-0.75;-0.235
'0:02.348';-0.325;-0.18
'0:02.352';0.1;-0.255
'0:02.356';-0.245;-0.305
'0:02.360';-0.77;-0.25
'0:02.364';-0.335;-0.2
'0:02.368';0.16;-0.28
'0:02.372';-0.225;-0.31
'0:02.376';-0.74;-0.225
'0:02.380';-0.42;-0.205
'0:02.384';0.16;-0.29
'0:02.388';-0.04;-0.325
'0:02.392';-0.705;-0.255
'0:02.396';-0.565;-0.22
'0:02.400';0.1;-0.25
'0:02.404';0.055;-0.325
'0:02.408';-0.58;-0.27
'0:02.412';-0.62;-0.21
'0:02.416';0.025;-0.25
'0:02.420';0.1;-0.34
'0:02.424';-0.51;-0.34
'0:02.428';-0.675;-0.2
'0:02.432';-0.075;-0.215
'0:02.436';0.105;-0.315
'0:02.440';-0.495;-0.315
'0:02.444';-0.685;-0.225
'0:02.448';-0.11;-0.22
'0:02.452';0.08;-0.29
'0:02.456';-0.51;-0.305
'0:02.460';-0.68;-0.255
'0:02.464';-0.07;-0.245
'0:02.468';0.14;-0.285
'0:02.472';-0.48;-0.3
'0:02.476';-0.635;-0.25
'0:02.480';-0.02;-0.26
'0:02.484';0.135;-0.325
'0:02.488';-0.49;-0.29
'0:02.492';-0.685;-0.245
'0:02.496';-0.06;-0.245
'0:02.500';0.18;-0.3
'0:02.504';-0.42;-0.29
'0:02.508';-0.7;-0.245
'0:02.512';-0.17;-0.24
'0:02.516';0.195;-0.285
'0:02.520';-0.255;-0.29
'0:02.524';-0.705;-0.255
'0:02.528';-0.3;-0.195
'0:02.532';0.175;-0.27
'0:02.536';-0.155;-0.335
'0:02.540';-0.71;-0.27
'0:02.544';-0.43;-0.26
'0:02.548';0.155;-0.3
'0:02.552';-0.06;-0.3
'0:02.556';-0.685;-0.275
'0:02.560';-0.475;-0.205
'0:02.564';0.115;-0.27
'0:02.568';-0.105;-0.295
'0:02.572';-0.685;-0.27
'0:02.576';-0.51;-0.225
'0:02.580';0.125;-0.245
'0:02.584';-0.06;-0.325
'0:02.588';-0.635;-0.26
'0:02.592';-0.495;-0.22
'0:02.596';0.1;-0.25
'0:02.600';-0.03;-0.34
'0:02.604';-0.63;-0.295
'0:02.608';-0.56;-0.255
'0:02.612';0.05;-0.285
'0:02.616';0.03;-0.34
'0:02.620';-0.6;-0.32
'0:02.624';-0.65;-0.27
'0:02.628';-0.045;-0.24
'0:02.632';0.16;-0.345
'0:02.636';-0.44;-0.325
'0:02.640';-0.735;-0.27
'0:02.644';-0.185;-0.24
'0:02.648';0.18;-0.31
'0:02.652';-0.345;-0.36
'0:02.656';-0.755;-0.27
'0:02.660';-0.33;-0.24
'0:02.664';0.15;-0.31
'0:02.668';-0.235;-0.35
'0:02.672';-0.75;-0.32
'0:02.676';-0.415;-0.255
'0:02.680';0.16;-0.305
'0:02.684';-0.12;-0.35
'0:02.688';-0.68;-0.3
'0:02.692';-0.455;-0.225
'0:02.696';0.135;-0.29
'0:02.700';-0.075;-0.345
'0:02.704';-0.665;-0.31
'0:02.708';-0.5;-0.2
'0:02.712';0.125;-0.245
'0:02.716';-0.04;-0.29
'0:02.720';-0.64;-0.255
'0:02.724';-0.465;-0.215
'0:02.728';0.16;-0.205
'0:02.732';0.065;-0.215
'0:02.736';-0.55;-0.145
'0:02.740';-0.475;-0.105
'0:02.744';0.125;-0.08
'0:02.748';0.235;-0.125
'0:02.752';-0.41;-0.1
'0:02.756';-0.475;-0.105
'0:02.760';0.16;-0.17
'0:02.764';0.25;-0.26
'0:02.768';-0.43;-0.295
'0:02.772';-0.62;-0.3
'0:02.776';-0.035;-0.395
'0:02.780';0.2;-0.455
'0:02.784';-0.37;-0.435
'0:02.788';-0.69;-0.33
'0:02.792';-0.185;-0.345
'0:02.796';0.15;-0.38
'0:02.800';-0.375;-0.42
'0:02.804';-0.785;-0.305
'0:02.808';-0.345;-0.265
'0:02.812';0.06;-0.37
'0:02.816';-0.38;-0.42
'0:02.820';-0.83;-0.385
'0:02.824';-0.385;-0.325
'0:02.828';0.09;-0.41
'0:02.832';-0.32;-0.44
'0:02.836';-0.79;-0.39
'0:02.840';-0.415;-0.345
'0:02.844';0.11;-0.43
'0:02.848';-0.275;-0.425
'0:02.852';-0.82;-0.405
'0:02.856';-0.5;-0.345
'0:02.860';0.01;-0.375
'0:02.864';-0.385;-0.315
'0:02.868';-0.885;-0.045
'0:02.872';-0.35;0.19
'0:02.876';0.395;0.15
'0:02.880';0.455;0.06
'0:02.884';0.265;0.34
'0:02.888';0.86;0.485
'0:02.892';1.715;-0.19
'0:02.896';1.525;-0.975
'0:02.900';0.3;-1.31
'0:02.904';-0.325;-1.49
'0:02.908';-0.125;-1.82
'0:02.912';-0.47;-2.03
'0:02.916';-1.28;-2.39
'0:02.920';-1.255;-2.445
'0:02.924';-0.38;-2.065
'0:02.928';-0.14;-1.635
'0:02.932';-0.64;-1.22
'0:02.936';-0.715;-0.735
'0:02.940';-0.135;-0.365
'0:02.944';0.06;-0.265
'0:02.948';-0.535;-0.24
'0:02.952';-0.82;-0.18
'0:02.956';-0.24;-0.16
'0:02.960';0.07;-0.22
'0:02.964';-0.49;-0.235
'0:02.968';-0.79;-0.16
'0:02.972';-0.26;-0.155
'0:02.976';0.04;-0.22
'0:02.980';-0.51;-0.205
'0:02.984';-0.79;-0.16
'0:02.988';-0.245;-0.15
'0:02.992';0.09;-0.18
'0:02.996';-0.43;-0.195
'0:03.000';-0.78;-0.14
'0:03.004';-0.27;-0.11
'0:03.008';0.11;-0.18
'0:03.012';-0.395;-0.19
'0:03.016';-0.825;-0.13
'0:03.020';-0.335;-0.045
'0:03.024';0.145;-0.155
'0:03.028';-0.235;-0.165
'0:03.032';-0.77;-0.07
'0:03.036';-0.415;-0.035
'0:03.040';0.15;-0.105
'0:03.044';-0.11;-0.14
'0:03.048';-0.73;-0.065
'0:03.052';-0.56;0.01
'0:03.056';0.095;-0.025
'0:03.060';0.03;-0.03
'0:03.064';-0.595;0.02
'0:03.068';-0.59;0.08
'0:03.072';0.07;0.065
'0:03.076';0.13;0.05
'0:03.080';-0.52;0.075
'0:03.084';-0.63;0.195
'0:03.088';0.005;0.205
'0:03.092';0.165;0.17
'0:03.096';-0.425;0.16
'0:03.100';-0.555;0.3
'0:03.104';0.05;0.34
'0:03.108';0.275;0.295
'0:03.112';-0.28;0.36
'0:03.116';-0.505;0.375
'0:03.120';0.075;0.445
'0:03.124';0.355;0.36
'0:03.128';-0.19;0.365
'0:03.132';-0.51;0.425
'0:03.136';0.02;0.465
'0:03.140';0.415;0.39
'0:03.144';-0.025;0.395
'0:03.148';-0.47;0.44
'0:03.152';-0.04;0.475
'0:03.156';0.495;0.41
'0:03.160';0.15;0.36
'0:03.164';-0.445;0.405
'0:03.168';-0.2;0.445
'0:03.172';0.4;0.38
'0:03.176';0.22;0.27
'0:03.180';-0.42;0.265
'0:03.184';-0.39;0.295
'0:03.188';0.23;0.22
'0:03.192';0.245;0.125
'0:03.196';-0.41;0.12
'0:03.200';-0.55;0.16
'0:03.204';0.05;0.11
'0:03.208';0.195;0
'0:03.212';-0.43;-0.04
'0:03.216';-0.645;0.01
'0:03.220';-0.04;0.005
'0:03.224';0.2;-0.1
'0:03.228';-0.4;-0.14
'0:03.232';-0.665;-0.1
'0:03.236';-0.12;-0.1
'0:03.240';0.18;-0.17
'0:03.244';-0.375;-0.175
'0:03.248';-0.745;-0.17
'0:03.252';-0.215;-0.155
'0:03.256';0.18;-0.225
'0:03.260';-0.26;-0.225
'0:03.264';-0.72;-0.175
'0:03.268';-0.285;-0.125
'0:03.272';0.22;-0.205
'0:03.276';-0.135;-0.24
'0:03.280';-0.695;-0.18
'0:03.284';-0.45;-0.15
'0:03.288';0.18;-0.2
'0:03.292';0.05;-0.25
'0:03.296';-0.6;-0.205
'0:03.300';-0.625;-0.145
'0:03.304';0.055;-0.18
'0:03.308';0.15;-0.24
'0:03.312';-0.475;-0.235
'0:03.316';-0.635;-0.165
'0:03.320';-0.015;-0.18
'0:03.324';0.175;-0.235
'0:03.328';-0.41;-0.25
'0:03.332';-0.685;-0.15
'0:03.336';-0.08;-0.155
'0:03.340';0.225;-0.195
'0:03.344';-0.305;-0.235
'0:03.348';-0.71;-0.18
'0:03.352';-0.195;-0.145
'0:03.356';0.2;-0.215
'0:03.360';-0.24;-0.245
'0:03.364';-0.715;-0.21
'0:03.368';-0.33;-0.16
'0:03.372';0.17;-0.215
'0:03.376';-0.215;-0.25
'0:03.380';-0.73;-0.21
'0:03.384';-0.39;-0.195
'0:03.388';0.2;-0.235
'0:03.392';-0.045;-0.31
'0:03.396';-0.68;-0.285
'0:03.400';-0.51;-0.23
'0:03.404';0.11;-0.21
'0:03.408';0.055;-0.32
'0:03.412';-0.605;-0.28
'0:03.416';-0.645;-0.23
'0:03.420';0.025;-0.24
'0:03.424';0.15;-0.315
'0:03.428';-0.49;-0.31
'0:03.432';-0.68;-0.255
'0:03.436';-0.06;-0.245
'0:03.440';0.16;-0.35
'0:03.444';-0.45;-0.35
'0:03.448';-0.74;-0.255
'0:03.452';-0.16;-0.265
'0:03.456';0.17;-0.315
'0:03.460';-0.37;-0.365
'0:03.464';-0.72;-0.285
'0:03.468';-0.24;-0.26
'0:03.472';0.185;-0.335
'0:03.476';-0.3;-0.37
'0:03.480';-0.725;-0.29
'0:03.484';-0.255;-0.23
'0:03.488';0.205;-0.32
'0:03.492';-0.225;-0.31
'0:03.496';-0.65;-0.23
'0:03.500';-0.13;-0.12
'0:03.504';0.29;-0.165
'0:03.508';-0.16;-0.165
'0:03.512';-0.595;-0.08
'0:03.516';-0.06;-0.03
'0:03.520';0.39;-0.14
'0:03.524';-0.065;-0.19
'0:03.528';-0.605;-0.185
'0:03.532';-0.24;-0.185
'0:03.536';0.225;-0.33
'0:03.540';-0.145;-0.475
'0:03.544';-0.68;-0.41
'0:03.548';-0.345;-0.38
'0:03.552';0.195;-0.41
'0:03.556';-0.11;-0.445
'0:03.560';-0.735;-0.4
'0:03.564';-0.545;-0.34
'0:03.568';0.04;-0.36
'0:03.572';-0.11;-0.415
'0:03.576';-0.77;-0.4
'0:03.580';-0.69;-0.355
'0:03.584';-0.04;-0.405
'0:03.588';-0.03;-0.44
'0:03.592';-0.675;-0.47
'0:03.596';-0.72;-0.395
'0:03.600';-0.1;-0.405
'0:03.604';0.02;-0.46
'0:03.608';-0.6;-0.44
'0:03.612';-0.71;-0.39
'0:03.616';-0.09;-0.37
'0:03.620';0.075;-0.43
'0:03.624';-0.55;-0.41
'0:03.628';-0.735;-0.365
'0:03.632';-0.19;-0.3
'0:03.636';-0.08;-0.17
'0:03.640';-0.575;0.04
'0:03.644';-0.585;0.13
'0:03.648';0.28;0.08
'0:03.652';0.92;0.195
'0:03.656';0.745;0.365
'0:03.660';0.855;-0.205
'0:03.664';1.53;-0.945
'0:03.668';1.445;-1.525
'0:03.672';0.18;-1.79
'0:03.676';-0.74;-2.115
'0:03.680';-0.705;-2.32
'0:03.684';-0.48;-2.52
'0:03.688';-0.78;-2.74
'0:03.692';-1.185;-2.61
'0:03.696';-0.675;-1.855
'0:03.700';0.055;-1.29
'0:03.704';-0.115;-0.89
'0:03.708';-0.72;-0.495
'0:03.712';-0.59;-0.21
'0:03.716';-0.005;-0.21
'0:03.720';-0.175;-0.29
'0:03.724';-0.75;-0.22
'0:03.728';-0.62;-0.165
'0:03.732';0.04;-0.21
'0:03.736';-0.08;-0.285
'0:03.740';-0.725;-0.26
'0:03.744';-0.615;-0.18
'0:03.748';0;-0.215
'0:03.752';-0.08;-0.24
'0:03.756';-0.71;-0.21
'0:03.760';-0.635;-0.15
'0:03.764';-0.01;-0.18
'0:03.768';-0.065;-0.21
'0:03.772';-0.665;-0.225
'0:03.776';-0.635;-0.14
'0:03.780';0;-0.12
'0:03.784';0.03;-0.2
'0:03.788';-0.61;-0.17
'0:03.792';-0.68;-0.1
'0:03.796';-0.02;-0.085
'0:03.800';0.12;-0.15
'0:03.804';-0.53;-0.125
'0:03.808';-0.715;-0.07
'0:03.812';-0.1;-0.055
'0:03.816';0.165;-0.09
'0:03.820';-0.34;-0.11
'0:03.824';-0.73;0.005
'0:03.828';-0.22;0.025
'0:03.832';0.21;-0.015
'0:03.836';-0.215;-0.035
'0:03.840';-0.645;0.08
'0:03.844';-0.205;0.115
'0:03.848';0.29;0.09
'0:03.852';-0.125;0.075
'0:03.856';-0.585;0.16
'0:03.860';-0.215;0.235
'0:03.864';0.305;0.215
'0:03.868';-0.075;0.21
'0:03.872';-0.56;0.24
'0:03.876';-0.125;0.31
'0:03.880';0.35;0.275
'0:03.884';-0.085;0.245
'0:03.888';-0.54;0.345
'0:03.892';-0.09;0.375
'0:03.896';0.39;0.325
'0:03.900';-0.025;0.275
'0:03.904';-0.535;0.315
'0:03.908';-0.135;0.335
'0:03.912';0.375;0.28
'0:03.916';0;0.235
'0:03.920';-0.57;0.25
'0:03.924';-0.26;0.25
'0:03.928';0.25;0.2
'0:03.932';-0.05;0.095
'0:03.936';-0.64;0.115
'0:03.940';-0.43;0.11
'0:03.944';0.145;0.005
'0:03.948';-0.08;-0.105
'0:03.952';-0.715;-0.08
'0:03.956';-0.535;-0.065
'0:03.960';0.095;-0.14
'0:03.964';-0.08;-0.19
'0:03.968';-0.695;-0.195
'0:03.972';-0.575;-0.17
'0:03.976';0.025;-0.225
'0:03.980';-0.095;-0.29
'0:03.984';-0.72;-0.285
'0:03.988';-0.56;-0.24
'0:03.992';0.065;-0.265
'0:03.996';-0.12;-0.345
'0:04.000';-0.7;-0.335
'0:04.004';-0.555;-0.26
'0:04.008';0.075;-0.315
'0:04.012';-0.105;-0.34
'0:04.016';-0.715;-0.305
'0:04.020';-0.535;-0.23
'0:04.024';0.095;-0.275
'0:04.028';-0.055;-0.325
'0:04.032';-0.67;-0.305
'0:04.036';-0.55;-0.255
'0:04.040';0.06;-0.265
'0:04.044';-0.03;-0.32
'0:04.048';-0.695;-0.285
'0:04.052';-0.585;-0.225
'0:04.056';0.07;-0.26
'0:04.060';0.015;-0.34
'0:04.064';-0.63;-0.3
'0:04.068';-0.615;-0.25
'0:04.072';0.025;-0.285
'0:04.076';0.06;-0.345
'0:04.080';-0.585;-0.29
'0:04.084';-0.66;-0.235
'0:04.088';-0.04;-0.275
'0:04.092';0.06;-0.315
'0:04.096';-0.53;-0.33
'0:04.100';-0.7;-0.26
'0:04.104';-0.135;-0.28
'0:04.108';0.12;-0.335
'0:04.112';-0.465;-0.36
'0:04.116';-0.76;-0.295
'0:04.120';-0.205;-0.28
'0:04.124';0.125;-0.355
'0:04.128';-0.41;-0.33
'0:04.132';-0.76;-0.27
'0:04.136';-0.225;-0.275
'0:04.140';0.15;-0.345
'0:04.144';-0.365;-0.33
'0:04.148';-0.76;-0.305
'0:04.152';-0.265;-0.27
'0:04.156';0.16;-0.355
'0:04.160';-0.355;-0.355
'0:04.164';-0.775;-0.29
'0:04.168';-0.305;-0.29
'0:04.172';0.145;-0.365
'0:04.176';-0.3;-0.36
'0:04.180';-0.775;-0.295
'0:04.184';-0.335;-0.275
'0:04.188';0.155;-0.305
'0:04.192';-0.155;-0.35
'0:04.196';-0.73;-0.315
'0:04.200';-0.445;-0.275
'0:04.204';0.13;-0.3
'0:04.208';-0.105;-0.375
'0:04.212';-0.71;-0.31
'0:04.216';-0.575;-0.24
'0:04.220';0.07;-0.295
'0:04.224';0.015;-0.345
'0:04.228';-0.63;-0.285
'0:04.232';-0.605;-0.22
'0:04.236';0.08;-0.255
'0:04.240';0.205;-0.28
'0:04.244';-0.455;-0.21
'0:04.248';-0.565;-0.11
'0:04.252';0.05;-0.06
'0:04.256';0.225;-0.11
'0:04.260';-0.33;-0.075
'0:04.264';-0.46;-0.015
'0:04.268';0.12;-0.06
'0:04.272';0.25;-0.23
'0:04.276';-0.385;-0.23
'0:04.280';-0.585;-0.22
'0:04.284';0.015;-0.335
'0:04.288';0.165;-0.495
'0:04.292';-0.51;-0.45
'0:04.296';-0.63;-0.38
'0:04.300';0;-0.37
'0:04.304';0.115;-0.42
'0:04.308';-0.53;-0.425
'0:04.312';-0.715;-0.38
'0:04.316';-0.145;-0.33
'0:04.320';0.04;-0.38
'0:04.324';-0.57;-0.415
'0:04.328';-0.815;-0.33
'0:04.332';-0.235;-0.39
'0:04.336';0.07;-0.455
'0:04.340';-0.475;-0.495
'0:04.344';-0.815;-0.395
'0:04.348';-0.27;-0.4
'0:04.352';0.115;-0.415
'0:04.356';-0.365;-0.48
'0:04.360';-0.805;-0.425
'0:04.364';-0.34;-0.355
'0:04.368';0.105;-0.395
'0:04.372';-0.35;-0.46
'0:04.376';-0.84;-0.32
'0:04.380';-0.455;-0.11
'0:04.384';0.085;0.06
'0:04.388';-0.165;0.095
'0:04.392';-0.32;0.1
'0:04.396';0.54;0.31
'0:04.400';1.315;0.345
'0:04.404';1.21;-0.365
'0:04.408';0.95;-1.075
'0:04.412';0.975;-1.515
'0:04.416';0.63;-1.835
'0:04.420';-0.39;-2.24
'0:04.424';-1.28;-2.56
'0:04.428';-0.96;-2.57
'0:04.432';-0.27;-2.595
'0:04.436';-0.655;-2.245
'0:04.440';-0.98;-1.535
'0:04.444';-0.335;-0.97
'0:04.448';0.11;-0.65
'0:04.452';-0.38;-0.365
'0:04.456';-0.875;-0.205
'0:04.460';-0.455;-0.155
'0:04.464';0.065;-0.195
'0:04.468';-0.255;-0.25
'0:04.472';-0.835;-0.205
'0:04.476';-0.535;-0.135
'0:04.480';0.055;-0.2
'0:04.484';-0.2;-0.22
'0:04.488';-0.765;-0.195
'0:04.492';-0.48;-0.15
'0:04.496';0.055;-0.225
'0:04.500';-0.135;-0.205
'0:04.504';-0.75;-0.21
'0:04.508';-0.485;-0.115
'0:04.512';0.07;-0.17
'0:04.516';-0.195;-0.225
'0:04.520';-0.76;-0.165
'0:04.524';-0.47;-0.115
'0:04.528';0.1;-0.17
'0:04.532';-0.215;-0.19
'0:04.536';-0.765;-0.145
'0:04.540';-0.415;-0.11
'0:04.544';0.135;-0.09
'0:04.548';-0.17;-0.14
'0:04.552';-0.73;-0.07
'0:04.556';-0.465;-0.02
'0:04.560';0.115;-0.04
'0:04.564';-0.07;-0.085
'0:04.568';-0.72;0
'0:04.572';-0.52;0.045
'0:04.576';0.14;0.025
'0:04.580';0.09;0.005
'0:04.584';-0.535;0.04
'0:04.588';-0.55;0.14
'0:04.592';0.105;0.165
'0:04.596';0.22;0.12
'0:04.600';-0.385;0.135
'0:04.604';-0.575;0.23
'0:04.608';0.05;0.25
'0:04.612';0.315;0.2
'0:04.616';-0.22;0.225
'0:04.620';-0.53;0.33
'0:04.624';0.05;0.35
'0:04.628';0.39;0.295
'0:04.632';-0.12;0.27
'0:04.636';-0.465;0.32
'0:04.640';0.02;0.37
'0:04.644';0.405;0.315
'0:04.648';-0.085;0.29
'0:04.652';-0.49;0.33
'0:04.656';-0.01;0.335
'0:04.660';0.365;0.28
'0:04.664';-0.165;0.21
'0:04.668';-0.61;0.26
'0:04.672';-0.165;0.25
'0:04.676';0.285;0.125
'0:04.680';-0.235;0.06
'0:04.684';-0.705;0.09
'0:04.688';-0.295;0.075
'0:04.692';0.18;-0.05
'0:04.696';-0.205;-0.165
'0:04.700';-0.765;-0.135
'0:04.704';-0.44;-0.1
'0:04.708';0.125;-0.225
'0:04.712';-0.17;-0.3
'0:04.716';-0.805;-0.29
'0:04.720';-0.575;-0.24
'0:04.724';0.035;-0.32
'0:04.728';-0.075;-0.415
'0:04.732';-0.695;-0.385
'0:04.736';-0.595;-0.335
'0:04.740';0.025;-0.36
'0:04.744';0.015;-0.445
'0:04.748';-0.62;-0.465
'0:04.752';-0.69;-0.37
'0:04.756';-0.105;-0.355
'0:04.760';0.065;-0.445
'0:04.764';-0.52;-0.415
'0:04.768';-0.675;-0.37
'0:04.772';-0.125;-0.395
'0:04.776';0.11;-0.43
'0:04.780';-0.485;-0.39
'0:04.784';-0.735;-0.335
'0:04.788';-0.165;-0.315
'0:04.792';0.085;-0.41
'0:04.796';-0.47;-0.4
'0:04.800';-0.715;-0.345
'0:04.804';-0.14;-0.32
'0:04.808';0.095;-0.405
'0:04.812';-0.5;-0.39
'0:04.816';-0.715;-0.345
'0:04.820';-0.125;-0.335
'0:04.824';0.045;-0.41
'0:04.828';-0.545;-0.415
'0:04.832';-0.735;-0.315
'0:04.836';-0.155;-0.35
'0:04.840';0.085;-0.365
'0:04.844';-0.465;-0.425
'0:04.848';-0.765;-0.32
'0:04.852';-0.215;-0.325
'0:04.856';0.13;-0.405
'0:04.860';-0.38;-0.425
'0:04.864';-0.79;-0.35
'0:04.868';-0.335;-0.375
'0:04.872';0.09;-0.41
'0:04.876';-0.345;-0.435
'0:04.880';-0.825;-0.41
'0:04.884';-0.44;-0.35
'0:04.888';0.105;-0.39
'0:04.892';-0.23;-0.4
'0:04.896';-0.785;-0.4
'0:04.900';-0.47;-0.33
'0:04.904';0.1;-0.405
'0:04.908';-0.21;-0.465
'0:04.912';-0.785;-0.415
'0:04.916';-0.47;-0.37
'0:04.920';0.055;-0.415
'0:04.924';-0.26;-0.435
'0:04.928';-0.8;-0.4
'0:04.932';-0.425;-0.375
'0:04.936';0.1;-0.42
'0:04.940';-0.245;-0.47
'0:04.944';-0.79;-0.44
'0:04.948';-0.475;-0.385
'0:04.952';0.075;-0.45
'0:04.956';-0.26;-0.455
'0:04.960';-0.815;-0.42
'0:04.964';-0.55;-0.335
'0:04.968';0.07;-0.43
'0:04.972';-0.08;-0.475
'0:04.976';-0.695;-0.435
'0:04.980';-0.62;-0.365
'0:04.984';0.045;-0.375
'0:04.988';0;-0.37
'0:04.992';-0.59;-0.295
'0:04.996';-0.605;-0.225
'0:05.000';0.005;-0.21
'0:05.004';0.125;-0.26
'0:05.008';-0.39;-0.195
'0:05.012';-0.53;-0.145
'0:05.016';0.055;-0.19
'0:05.020';0.255;-0.355
'0:05.024';-0.355;-0.385
'0:05.028';-0.64;-0.38
'0:05.032';-0.12;-0.44
'0:05.036';0.125;-0.56
'0:05.040';-0.435;-0.535
'0:05.044';-0.68;-0.47
'0:05.048';-0.105;-0.445
'0:05.052';0.115;-0.52
'0:05.056';-0.515;-0.535
'0:05.060';-0.805;-0.455
'0:05.064';-0.265;-0.385
'0:05.068';-0.03;-0.46
'0:05.072';-0.615;-0.495
'0:05.076';-0.885;-0.46
'0:05.080';-0.295;-0.45
'0:05.084';0.045;-0.53
'0:05.088';-0.46;-0.52
'0:05.092';-0.865;-0.43
'0:05.096';-0.375;-0.44
'0:05.100';0.095;-0.5
'0:05.104';-0.345;-0.53
'0:05.108';-0.845;-0.485
'0:05.112';-0.515;-0.42
'0:05.116';0.055;-0.475
'0:05.120';-0.245;-0.5
'0:05.124';-0.87;-0.435
'0:05.128';-0.75;-0.27
'0:05.132';-0.105;-0.08
'0:05.136';-0.07;0.015
'0:05.140';-0.42;0.04
'0:05.144';-0.025;0.085
'0:05.148';0.985;0.29
'0:05.152';1.325;0.32
'0:05.156';1.035;-0.335
'0:05.160';0.98;-0.95
'0:05.164';0.915;-1.395
'0:05.168';0.24;-1.67
'0:05.172';-0.84;-2.04
'0:05.176';-1.27;-2.29
'0:05.180';-0.735;-2.395
'0:05.184';-0.45;-2.505
'0:05.188';-0.96;-2.245
'0:05.192';-0.925;-1.615
'0:05.196';-0.075;-1.145
'0:05.200';0.09;-0.795
'0:05.204';-0.595;-0.45
'0:05.208';-0.75;-0.235
'0:05.212';-0.15;-0.22
'0:05.216';0.035;-0.305
'0:05.220';-0.545;-0.305
'0:05.224';-0.84;-0.23
'0:05.228';-0.27;-0.25
'0:05.232';0.07;-0.32
'0:05.236';-0.41;-0.335
'0:05.240';-0.805;-0.215
'0:05.244';-0.36;-0.225
'0:05.248';0.13;-0.26
'0:05.252';-0.225;-0.305
'0:05.256';-0.775;-0.23
'0:05.260';-0.475;-0.17
'0:05.264';0.09;-0.245
'0:05.268';-0.18;-0.265
'0:05.272';-0.775;-0.21
'0:05.276';-0.54;-0.165
'0:05.280';0.085;-0.205
'0:05.284';-0.045;-0.23
'0:05.288';-0.635;-0.19
'0:05.292';-0.545;-0.155
'0:05.296';0.04;-0.155
'0:05.300';-0.02;-0.18
'0:05.304';-0.66;-0.17
'0:05.308';-0.58;-0.09
'0:05.312';0.025;-0.085
'0:05.316';0.085;-0.155
'0:05.320';-0.53;-0.115
'0:05.324';-0.54;-0.02
'0:05.328';0.105;-0.01
'0:05.332';0.14;-0.07
'0:05.336';-0.47;-0.025
'0:05.340';-0.565;0.055
'0:05.344';0.075;0.09
'0:05.348';0.235;0.055
'0:05.352';-0.365;0.06
'0:05.356';-0.56;0.165
'0:05.360';0.045;0.185
'0:05.364';0.34;0.145
'0:05.368';-0.225;0.16
'0:05.372';-0.545;0.245
'0:05.376';-0.03;0.275
'0:05.380';0.34;0.22
'0:05.384';-0.1;0.21
'0:05.388';-0.53;0.265
'0:05.392';-0.105;0.31
'0:05.396';0.415;0.235
'0:05.400';0.035;0.195
'0:05.404';-0.52;0.25
'0:05.408';-0.24;0.285
'0:05.412';0.335;0.195
'0:05.416';0.07;0.155
'0:05.420';-0.545;0.185
'0:05.424';-0.365;0.17
'0:05.428';0.19;0.115
'0:05.432';-0.02;-0.01
'0:05.436';-0.635;-0.01
'0:05.440';-0.475;0
'0:05.444';0.1;-0.015
'0:05.448';-0.04;-0.16
'0:05.452';-0.7;-0.13
'0:05.456';-0.605;-0.18
'0:05.460';-0.005;-0.24
'0:05.464';-0.075;-0.33
'0:05.468';-0.69;-0.29
'0:05.472';-0.64;-0.23
'0:05.476';-0.025;-0.285
'0:05.480';0.02;-0.355
'0:05.484';-0.62;-0.36
'0:05.488';-0.695;-0.275
'0:05.492';-0.105;-0.285
'0:05.496';0.065;-0.365
'0:05.500';-0.505;-0.375
'0:05.504';-0.78;-0.305
'0:05.508';-0.245;-0.3
'0:05.512';0.125;-0.385
'0:05.516';-0.36;-0.35
'0:05.520';-0.825;-0.33
'0:05.524';-0.415;-0.285
'0:05.528';0.09;-0.335
'0:05.532';-0.22;-0.36
'0:05.536';-0.765;-0.3
'0:05.540';-0.495;-0.24
'0:05.544';0.07;-0.305
'0:05.548';-0.105;-0.36
'0:05.552';-0.705;-0.295
'0:05.556';-0.535;-0.31
'0:05.560';0.08;-0.295
'0:05.564';-0.06;-0.355
'0:05.568';-0.7;-0.345
'0:05.572';-0.605;-0.27
'0:05.576';0.035;-0.31
'0:05.580';-0.01;-0.37
'0:05.584';-0.665;-0.34
'0:05.588';-0.63;-0.305
'0:05.592';-0.005;-0.3
'0:05.596';0.02;-0.365
'0:05.600';-0.6;-0.38
'0:05.604';-0.755;-0.305
'0:05.608';-0.135;-0.285
'0:05.612';0.115;-0.365
'0:05.616';-0.43;-0.425
'0:05.620';-0.795;-0.34
'0:05.624';-0.335;-0.295
'0:05.628';0.165;-0.37
'0:05.632';-0.22;-0.425
'0:05.636';-0.825;-0.355
'0:05.640';-0.57;-0.3
'0:05.644';0.05;-0.39
'0:05.648';-0.065;-0.41
'0:05.652';-0.71;-0.425
'0:05.656';-0.655;-0.35
'0:05.660';-0.04;-0.35
'0:05.664';0.025;-0.42
'0:05.668';-0.61;-0.43
'0:05.672';-0.775;-0.37
'0:05.676';-0.175;-0.37
'0:05.680';0.075;-0.465
'0:05.684';-0.51;-0.43
'0:05.688';-0.795;-0.385
'0:05.692';-0.27;-0.365
'0:05.696';0.085;-0.44
'0:05.700';-0.39;-0.465
'0:05.704';-0.82;-0.39
'0:05.708';-0.415;-0.34
'0:05.712';0.115;-0.4
'0:05.716';-0.26;-0.43
'0:05.720';-0.81;-0.385
'0:05.724';-0.52;-0.32
'0:05.728';0.065;-0.365
'0:05.732';-0.085;-0.425
'0:05.736';-0.72;-0.385
'0:05.740';-0.675;-0.305
'0:05.744';0;-0.345
'0:05.748';0.1;-0.41
'0:05.752';-0.5;-0.345
'0:05.756';-0.68;-0.205
'0:05.760';-0.14;-0.165
'0:05.764';0.23;-0.22
'0:05.768';-0.255;-0.22
'0:05.772';-0.61;-0.135
'0:05.776';-0.2;-0.095
'0:05.780';0.28;-0.235
'0:05.784';-0.06;-0.3
'0:05.788';-0.66;-0.325
'0:05.792';-0.48;-0.27
'0:05.796';0.1;-0.435
'0:05.800';-0.06;-0.55
'0:05.804';-0.72;-0.51
'0:05.808';-0.625;-0.415
'0:05.812';-0.015;-0.425
'0:05.816';-0.03;-0.485
'0:05.820';-0.72;-0.465
'0:05.824';-0.715;-0.435
'0:05.828';-0.13;-0.395
'0:05.832';-0.09;-0.43
'0:05.836';-0.745;-0.475
'0:05.840';-0.8;-0.415
'0:05.844';-0.16;-0.455
'0:05.848';-0.065;-0.505
'0:05.852';-0.705;-0.495
'0:05.856';-0.835;-0.445
'0:05.860';-0.205;-0.48
'0:05.864';-0.03;-0.52
'0:05.868';-0.615;-0.515
'0:05.872';-0.85;-0.42
'0:05.876';-0.255;-0.435
'0:05.880';0.02;-0.5
'0:05.884';-0.515;-0.515
'0:05.888';-0.905;-0.43
'0:05.892';-0.475;-0.32
'0:05.896';-0.1;-0.175
'0:05.900';-0.435;0.01
'0:05.904';-0.665;0.095
'0:05.908';0.05;0.09
'0:05.912';0.9;0.16
'0:05.916';0.915;0.4
'0:05.920';0.75;-0.08
'0:05.924';1.155;-0.775
'0:05.928';1.28;-1.385
'0:05.932';0.255;-1.705
'0:05.936';-0.845;-1.965
'0:05.940';-1.025;-2.215
'0:05.944';-0.675;-2.34
'0:05.948';-0.705;-2.635
'0:05.952';-1.165;-2.535
'0:05.956';-0.885;-1.88
'0:05.960';-0.07;-1.29
'0:05.964';-0.125;-0.94
'0:05.968';-0.77;-0.48
'0:05.972';-0.665;-0.2
'0:05.976';-0.075;-0.21
'0:05.980';-0.17;-0.3
'0:05.984';-0.77;-0.225
'0:05.988';-0.68;-0.155
'0:05.992';-0.075;-0.21
'0:05.996';-0.15;-0.27
'0:06.000';-0.755;-0.22
'0:06.004';-0.7;-0.18
'0:06.008';-0.08;-0.205
'0:06.012';-0.045;-0.24
'0:06.016';-0.665;-0.225
'0:06.020';-0.73;-0.14
'0:06.024';-0.11;-0.16
'0:06.028';0.02;-0.25
'0:06.032';-0.62;-0.23
'0:06.036';-0.815;-0.15
'0:06.040';-0.245;-0.13
'0:06.044';0.04;-0.215
'0:06.048';-0.53;-0.19
'0:06.052';-0.8;-0.13
'0:06.056';-0.255;-0.08
'0:06.060';0.12;-0.175
'0:06.064';-0.39;-0.165
'0:06.068';-0.785;-0.065
'0:06.072';-0.29;-0.075
'0:06.076';0.14;-0.12
'0:06.080';-0.35;-0.105
'0:06.084';-0.77;-0.045
'0:06.088';-0.315;-0.01
'0:06.092';0.15;-0.045
'0:06.096';-0.245;-0.03
'0:06.100';-0.695;0.045
'0:06.104';-0.275;0.115
'0:06.108';0.24;0.115
'0:06.112';-0.135;0.065
'0:06.116';-0.63;0.175
'0:06.120';-0.245;0.25
'0:06.124';0.295;0.24
'0:06.128';0.02;0.2
'0:06.132';-0.545;0.28
'0:06.136';-0.275;0.36
'0:06.140';0.325;0.32
'0:06.144';0.175;0.28
'0:06.148';-0.47;0.325
'0:06.152';-0.4;0.39
'0:06.156';0.23;0.365
'0:06.160';0.285;0.325
'0:06.164';-0.35;0.335
'0:06.168';-0.51;0.41
'0:06.172';0.095;0.405
'0:06.176';0.325;0.335
'0:06.180';-0.265;0.295
'0:06.184';-0.635;0.295
'0:06.188';-0.135;0.275
'0:06.192';0.245;0.215
'0:06.196';-0.24;0.15
'0:06.200';-0.74;0.15
'0:06.204';-0.37;0.145
'0:06.208';0.145;0.045
'0:06.212';-0.26;-0.05
'0:06.216';-0.805;-0.065
'0:06.220';-0.425;-0.06
'0:06.224';0.095;-0.115
'0:06.228';-0.28;-0.24
'0:06.232';-0.795;-0.19
'0:06.236';-0.425;-0.185
'0:06.240';0.095;-0.205
'0:06.244';-0.2;-0.3
'0:06.248';-0.775;-0.26
'0:06.252';-0.52;-0.21
'0:06.256';0.07;-0.26
'0:06.260';-0.125;-0.315
'0:06.264';-0.75;-0.295
'0:06.268';-0.63;-0.24
'0:06.272';0.005;-0.29
'0:06.276';-0.045;-0.345
'0:06.280';-0.68;-0.32
'0:06.284';-0.71;-0.225
'0:06.288';-0.07;-0.235
'0:06.292';0.075;-0.31
'0:06.296';-0.535;-0.29
'0:06.300';-0.735;-0.275
'0:06.304';-0.13;-0.205
'0:06.308';0.155;-0.29
'0:06.312';-0.425;-0.31
'0:06.316';-0.76;-0.25
'0:06.320';-0.28;-0.235
'0:06.324';0.11;-0.295
'0:06.328';-0.375;-0.29
'0:06.332';-0.745;-0.255
'0:06.336';-0.26;-0.26
'0:06.340';0.145;-0.285
'0:06.344';-0.345;-0.335
'0:06.348';-0.735;-0.24
'0:06.352';-0.235;-0.22
'0:06.356';0.105;-0.25
'0:06.360';-0.36;-0.31
'0:06.364';-0.77;-0.245
'0:06.368';-0.27;-0.255
'0:06.372';0.125;-0.28
'0:06.376';-0.305;-0.28
'0:06.380';-0.76;-0.245
'0:06.384';-0.33;-0.25
'0:06.388';0.105;-0.27
'0:06.392';-0.33;-0.32
'0:06.396';-0.8;-0.28
'0:06.400';-0.405;-0.215
'0:06.404';0.115;-0.28
'0:06.408';-0.175;-0.33
'0:06.412';-0.76;-0.32
'0:06.416';-0.51;-0.255
'0:06.420';0.09;-0.29
'0:06.424';-0.075;-0.31
'0:06.428';-0.715;-0.285
'0:06.432';-0.625;-0.225
'0:06.436';0;-0.275
'0:06.440';-0.04;-0.32
'0:06.444';-0.685;-0.32
'0:06.448';-0.64;-0.275
'0:06.452';-0.025;-0.26
'0:06.456';0.015;-0.335
'0:06.460';-0.625;-0.325
'0:06.464';-0.64;-0.28
'0:06.468';-0.065;-0.255
'0:06.472';0.01;-0.365
'0:06.476';-0.625;-0.315
'0:06.480';-0.675;-0.28
'0:06.484';-0.085;-0.275
'0:06.488';0.005;-0.35
'0:06.492';-0.58;-0.35
'0:06.496';-0.655;-0.24
'0:06.500';-0.035;-0.265
'0:06.504';0.1;-0.32
'0:06.508';-0.505;-0.285
'0:06.512';-0.605;-0.135
'0:06.516';0;-0.125
'0:06.520';0.19;-0.145
'0:06.524';-0.39;-0.12
'0:06.528';-0.565;-0.01
'0:06.532';0.045;-0.005
'0:06.536';0.295;-0.14
'0:06.540';-0.255;-0.17
'0:06.544';-0.65;-0.17
'0:06.548';-0.24;-0.225
'0:06.552';0.145;-0.39
'0:06.556';-0.32;-0.49
'0:06.560';-0.73;-0.44
'0:06.564';-0.35;-0.345
'0:06.568';0.135;-0.415
'0:06.572';-0.18;-0.425
'0:06.576';-0.775;-0.4
'0:06.580';-0.53;-0.37
'0:06.584';-0.005;-0.365
'0:06.588';-0.225;-0.385
'0:06.592';-0.805;-0.36
'0:06.596';-0.65;-0.355
'0:06.600';-0.055;-0.37
'0:06.604';-0.155;-0.46
'0:06.608';-0.765;-0.44
'0:06.612';-0.65;-0.355
'0:06.616';-0.065;-0.38
'0:06.620';-0.105;-0.445
'0:06.624';-0.74;-0.445
'0:06.628';-0.7;-0.35
'0:06.632';-0.06;-0.39
'0:06.636';-0.06;-0.435
'0:06.640';-0.695;-0.435
'0:06.644';-0.775;-0.335
'0:06.648';-0.215;-0.28
'0:06.652';-0.14;-0.1
'0:06.656';-0.605;0.085
'0:06.660';-0.57;0.195
'0:06.664';0.315;0.115
'0:06.668';0.88;0.24
'0:06.672';0.735;0.205
'0:06.676';0.755;-0.445
'0:06.680';1.385;-1.145
'0:06.684';1.43;-1.67
'0:06.688';0.285;-1.97
'0:06.692';-0.755;-2.325
'0:06.696';-0.865;-2.485
'0:06.700';-0.585;-2.645
'0:06.704';-0.73;-2.8
'0:06.708';-1.2;-2.66
'0:06.712';-0.9;-1.89
'0:06.716';-0.065;-1.25
'0:06.720';-0.075;-0.855
'0:06.724';-0.74;-0.425
'0:06.728';-0.71;-0.22
'0:06.732';-0.11;-0.235
'0:06.736';-0.105;-0.27
'0:06.740';-0.74;-0.26
'0:06.744';-0.735;-0.2
'0:06.748';-0.12;-0.19
'0:06.752';-0.07;-0.275
'0:06.756';-0.685;-0.26
'0:06.760';-0.75;-0.16
'0:06.764';-0.13;-0.195
'0:06.768';-0.015;-0.225
'0:06.772';-0.59;-0.22
'0:06.776';-0.765;-0.15
'0:06.780';-0.17;-0.16
'0:06.784';0.01;-0.22
'0:06.788';-0.59;-0.25
'0:06.792';-0.845;-0.08
'0:06.796';-0.265;-0.115
'0:06.800';0.095;-0.14
'0:06.804';-0.405;-0.175
'0:06.808';-0.805;-0.13
'0:06.812';-0.385;-0.075
'0:06.816';0.12;-0.105
'0:06.820';-0.205;-0.14
'0:06.824';-0.77;-0.075
'0:06.828';-0.55;0
'0:06.832';0.075;-0.05
'0:06.836';-0.08;-0.065
'0:06.840';-0.7;-0.01
'0:06.844';-0.55;0.02
'0:06.848';0.075;0.04
'0:06.852';0.035;0.015
'0:06.856';-0.585;0.05
'0:06.860';-0.52;0.125
'0:06.864';0.1;0.17
'0:06.868';0.105;0.12
'0:06.872';-0.515;0.18
'0:06.876';-0.47;0.3
'0:06.880';0.17;0.285
'0:06.884';0.195;0.26
'0:06.888';-0.405;0.3
'0:06.892';-0.415;0.37
'0:06.896';0.205;0.35
'0:06.900';0.23;0.32
'0:06.904';-0.38;0.355
'0:06.908';-0.44;0.42
'0:06.912';0.16;0.44
'0:06.916';0.32;0.375
'0:06.920';-0.265;0.345
'0:06.924';-0.515;0.42
'0:06.928';0.03;0.42
'0:06.932';0.35;0.355
'0:06.936';-0.175;0.315
'0:06.940';-0.625;0.31
'0:06.944';-0.255;0.34
'0:06.948';0.2;0.23
'0:06.952';-0.16;0.135
'0:06.956';-0.735;0.13
'0:06.960';-0.455;0.15
'0:06.964';0.09;0.04
'0:06.968';-0.105;-0.055
'0:06.972';-0.725;-0.035
'0:06.976';-0.6;-0.04
'0:06.980';-0.01;-0.075
'0:06.984';-0.1;-0.225
'0:06.988';-0.705;-0.21
'0:06.992';-0.685;-0.19
'0:06.996';-0.095;-0.21
'0:07.000';-0.12;-0.265
'0:07.004';-0.705;-0.245
'0:07.008';-0.67;-0.225
'0:07.012';-0.03;-0.285
'0:07.016';-0.115;-0.335
'0:07.020';-0.715;-0.31
'0:07.024';-0.71;-0.23
'0:07.028';-0.07;-0.27
'0:07.032';-0.04;-0.32
'0:07.036';-0.645;-0.34
'0:07.040';-0.76;-0.275
'0:07.044';-0.13;-0.25
'0:07.048';0.05;-0.315
'0:07.052';-0.54;-0.305
'0:07.056';-0.78;-0.24
'0:07.060';-0.23;-0.22
'0:07.064';0.115;-0.3
'0:07.068';-0.41;-0.295
'0:07.072';-0.81;-0.23
'0:07.076';-0.35;-0.195
'0:07.080';0.12;-0.305
'0:07.084';-0.265;-0.315
'0:07.088';-0.79;-0.255
'0:07.092';-0.475;-0.235
'0:07.096';0.075;-0.25
'0:07.100';-0.18;-0.3
'0:07.104';-0.77;-0.27
'0:07.108';-0.57;-0.235
'0:07.112';0.04;-0.245
'0:07.116';-0.13;-0.305
'0:07.120';-0.735;-0.265
'0:07.124';-0.63;-0.23
'0:07.128';-0.01;-0.27
'0:07.132';-0.09;-0.325
'0:07.136';-0.705;-0.31
'0:07.140';-0.665;-0.25
'0:07.144';-0.02;-0.285
'0:07.148';-0.075;-0.33
'0:07.152';-0.69;-0.37
'0:07.156';-0.705;-0.28
'0:07.160';-0.06;-0.285
'0:07.164';-0.03;-0.35
'0:07.168';-0.655;-0.36
'0:07.172';-0.71;-0.25
'0:07.176';-0.085;-0.32
'0:07.180';-0.01;-0.36
'0:07.184';-0.63;-0.35
'0:07.188';-0.76;-0.26
'0:07.192';-0.155;-0.275
'0:07.196';0.07;-0.315
'0:07.200';-0.505;-0.335
'0:07.204';-0.8;-0.3
'0:07.208';-0.31;-0.26
'0:07.212';0.1;-0.295
'0:07.216';-0.365;-0.34
'0:07.220';-0.85;-0.285
'0:07.224';-0.45;-0.24
'0:07.228';0.085;-0.295
'0:07.232';-0.235;-0.345
'0:07.236';-0.835;-0.3
'0:07.240';-0.56;-0.25
'0:07.244';0.06;-0.275
'0:07.248';-0.12;-0.335
'0:07.252';-0.735;-0.3
'0:07.256';-0.59;-0.205
'0:07.260';0.08;-0.245
'0:07.264';0.035;-0.315
'0:07.268';-0.575;-0.27
'0:07.272';-0.555;-0.125
'0:07.276';0.08;-0.105
'0:07.280';0.105;-0.12
'0:07.284';-0.52;-0.095
'0:07.288';-0.525;-0.035
'0:07.292';0.125;-0.04
'0:07.296';0.205;-0.17
'0:07.300';-0.405;-0.205
'0:07.304';-0.62;-0.195
'0:07.308';-0.055;-0.245
'0:07.312';0.135;-0.435
'0:07.316';-0.47;-0.475
'0:07.320';-0.725;-0.41
'0:07.324';-0.18;-0.36
'0:07.328';0.14;-0.405
'0:07.332';-0.405;-0.425
'0:07.336';-0.82;-0.38
'0:07.340';-0.42;-0.34
'0:07.344';0.01;-0.41
'0:07.348';-0.41;-0.415
'0:07.352';-0.915;-0.365
'0:07.356';-0.57;-0.32
'0:07.360';0;-0.395
'0:07.364';-0.31;-0.48
'0:07.368';-0.87;-0.46
'0:07.372';-0.61;-0.41
'0:07.376';0;-0.395
'0:07.380';-0.16;-0.485
'0:07.384';-0.81;-0.445
'0:07.388';-0.655;-0.38
'0:07.392';-0.06;-0.42
'0:07.396';-0.19;-0.45
'0:07.400';-0.79;-0.43
'0:07.404';-0.695;-0.295
'0:07.408';-0.135;-0.275
'0:07.412';-0.3;-0.09
'0:07.416';-0.735;0.13
'0:07.420';-0.33;0.185
'0:07.424';0.57;0.145
'0:07.428';0.835;0.355
'0:07.432';0.655;0.2
'0:07.436';1.05;-0.52
'0:07.440';1.62;-1.26
'0:07.444';0.915;-1.735
'0:07.448';-0.35;-2.005
'0:07.452';-0.845;-2.34
'0:07.456';-0.605;-2.51
'0:07.460';-0.62;-2.685
'0:07.464';-1.085;-2.845
'0:07.468';-1.145;-2.33
'0:07.472';-0.365;-1.52
'0:07.476';0.04;-1.09
'0:07.480';-0.52;-0.675
'0:07.484';-0.87;-0.28
'0:07.488';-0.35;-0.165
'0:07.492';0.02;-0.225
'0:07.496';-0.445;-0.22
'0:07.500';-0.875;-0.16
'0:07.504';-0.405;-0.125
'0:07.508';0.01;-0.225
'0:07.512';-0.425;-0.235
'0:07.516';-0.89;-0.145
'0:07.520';-0.41;-0.15
'0:07.524';0.015;-0.18
'0:07.528';-0.395;-0.22
'0:07.532';-0.825;-0.17
'0:07.536';-0.4;-0.125
'0:07.540';0.06;-0.185
'0:07.544';-0.34;-0.25
'0:07.548';-0.835;-0.19
'0:07.552';-0.425;-0.115
'0:07.556';0.055;-0.15
'0:07.560';-0.32;-0.175
'0:07.564';-0.79;-0.13
'0:07.568';-0.485;-0.065
'0:07.572';0.075;-0.13
'0:07.576';-0.23;-0.155
'0:07.580';-0.78;-0.125
'0:07.584';-0.51;-0.03
'0:07.588';0.065;-0.045
'0:07.592';-0.06;-0.125
'0:07.596';-0.715;-0.06
'0:07.600';-0.645;0.015
'0:07.604';0.02;0.025
'0:07.608';0.07;-0.04
'0:07.612';-0.55;0.035
'0:07.616';-0.635;0.085
'0:07.620';-0.025;0.125
'0:07.624';0.16;0.085
'0:07.628';-0.39;0.14
'0:07.632';-0.61;0.225
'0:07.636';-0.03;0.265
'0:07.640';0.265;0.235
'0:07.644';-0.275;0.195
'0:07.648';-0.57;0.335
'0:07.652';-0.03;0.35
'0:07.656';0.345;0.325
'0:07.660';-0.165;0.295
'0:07.664';-0.565;0.395
'0:07.668';-0.07;0.395
'0:07.672';0.35;0.34
'0:07.676';-0.11;0.295
'0:07.680';-0.6;0.4
'0:07.684';-0.155;0.41
'0:07.688';0.34;0.33
'0:07.692';-0.03;0.325
'0:07.696';-0.595;0.315
'0:07.700';-0.34;0.34
'0:07.704';0.195;0.235
'0:07.708';-0.025;0.155
'0:07.712';-0.695;0.135
'0:07.716';-0.615;0.135
'0:07.720';0.01;0.065
'0:07.724';0.005;-0.02
'0:07.728';-0.68;-0.065
'0:07.732';-0.805;-0.06
'0:07.736';-0.165;-0.08
'0:07.740';0.04;-0.19
'0:07.744';-0.57;-0.24
'0:07.748';-0.89;-0.225
'0:07.752';-0.3;-0.2
'0:07.756';0.06;-0.3
'0:07.760';-0.465;-0.34
'0:07.764';-0.905;-0.28
'0:07.768';-0.4;-0.305
'0:07.772';0.055;-0.375
'0:07.776';-0.33;-0.42
'0:07.780';-0.875;-0.345
'0:07.784';-0.49;-0.335
'0:07.788';0.05;-0.36
'0:07.792';-0.3;-0.39
'0:07.796';-0.855;-0.375
'0:07.800';-0.58;-0.32
'0:07.804';0.015;-0.355
'0:07.808';-0.16;-0.425
'0:07.812';-0.81;-0.365
'0:07.816';-0.67;-0.28
'0:07.820';-0.025;-0.34
'0:07.824';-0.065;-0.385
'0:07.828';-0.71;-0.35
'0:07.832';-0.745;-0.295
'0:07.836';-0.085;-0.275
'0:07.840';0.005;-0.36
'0:07.844';-0.64;-0.35
'0:07.848';-0.795;-0.29
'0:07.852';-0.185;-0.265
'0:07.856';0.07;-0.34
'0:07.860';-0.535;-0.365
'0:07.864';-0.88;-0.335
'0:07.868';-0.345;-0.29
'0:07.872';0.04;-0.355
'0:07.876';-0.43;-0.385
'0:07.880';-0.89;-0.3
'0:07.884';-0.435;-0.285
'0:07.888';0.055;-0.35
'0:07.892';-0.27;-0.365
'0:07.896';-0.81;-0.365
'0:07.900';-0.505;-0.3
'0:07.904';0.06;-0.335
'0:07.908';-0.24;-0.435
'0:07.912';-0.85;-0.36
'0:07.916';-0.65;-0.32
'0:07.920';-0.03;-0.375
'0:07.924';-0.205;-0.41
'0:07.928';-0.815;-0.38
'0:07.932';-0.66;-0.3
'0:07.936';-0.035;-0.345
'0:07.940';-0.125;-0.41
'0:07.944';-0.765;-0.41
'0:07.948';-0.73;-0.375
'0:07.952';-0.105;-0.365
'0:07.956';-0.12;-0.435
'0:07.960';-0.765;-0.4
'0:07.964';-0.78;-0.37
'0:07.968';-0.125;-0.37
'0:07.972';-0.025;-0.415
'0:07.976';-0.685;-0.39
'0:07.980';-0.87;-0.34
'0:07.984';-0.245;-0.345
'0:07.988';0.04;-0.435
'0:07.992';-0.48;-0.46
'0:07.996';-0.905;-0.335
'0:08.000';-0.47;-0.34
'0:08.004';0.055;-0.385
'0:08.008';-0.315;-0.485
'0:08.012';-0.83;-0.36
'0:08.016';-0.47;-0.315
'0:08.020';0.08;-0.355
'0:08.024';-0.18;-0.415
'0:08.028';-0.78;-0.355
'0:08.032';-0.535;-0.235
'0:08.036';0.06;-0.22
'0:08.040';-0.055;-0.235
'0:08.044';-0.695;-0.19
'0:08.048';-0.52;-0.095
'0:08.052';0.155;-0.125
'0:08.056';0.07;-0.215
'0:08.060';-0.575;-0.27
'0:08.064';-0.61;-0.235
'0:08.068';-0.045;-0.31
'0:08.072';0;-0.46
'0:08.076';-0.66;-0.53
'0:08.080';-0.78;-0.47
'0:08.084';-0.13;-0.43
'0:08.088';0.05;-0.49
'0:08.092';-0.615;-0.485
'0:08.096';-0.895;-0.435
'0:08.100';-0.35;-0.39
'0:08.104';-0.03;-0.46
'0:08.108';-0.595;-0.43
'0:08.112';-1.02;-0.395
'0:08.116';-0.595;-0.41
'0:08.120';-0.05;-0.435
'0:08.124';-0.4;-0.52
'0:08.128';-0.945;-0.46
'0:08.132';-0.64;-0.435
'0:08.136';-0.075;-0.465
'0:08.140';-0.27;-0.555
'0:08.144';-0.94;-0.485
'0:08.148';-0.76;-0.425
'0:08.152';-0.155;-0.45
'0:08.156';-0.23;-0.505
'0:08.160';-0.87;-0.46
'0:08.164';-0.84;-0.395
'0:08.168';-0.205;-0.38
'0:08.172';-0.25;-0.35
'0:08.176';-0.86;-0.135
'0:08.180';-0.715;0.125
'0:08.184';0.11;0.1
'0:08.188';0.505;0.025
'0:08.192';0.315;0.295
'0:08.196';0.615;0.34
'0:08.200';1.495;-0.365
'0:08.204';1.445;-1.135
'0:08.208';0.225;-1.505
'0:08.212';-0.615;-1.675
'0:08.216';-0.44;-2.055
'0:08.220';-0.565;-2.3
'0:08.224';-1.275;-2.64
'0:08.228';-1.405;-2.69
'0:08.232';-0.71;-2.14
'0:08.236';-0.13;-1.64
'0:08.240';-0.5;-1.13
'0:08.244';-0.87;-0.72
'0:08.248';-0.47;-0.325
'0:08.252';-0.015;-0.265
'0:08.256';-0.37;-0.305
'0:08.260';-0.91;-0.23
'0:08.264';-0.65;-0.185
'0:08.268';-0.055;-0.22
'0:08.272';-0.235;-0.27
'0:08.276';-0.88;-0.21
'0:08.280';-0.715;-0.16
'0:08.284';-0.09;-0.185
'0:08.288';-0.105;-0.26
'0:08.292';-0.725;-0.2
'0:08.296';-0.695;-0.125
'0:08.300';-0.045;-0.16
'0:08.304';-0.085;-0.18
'0:08.308';-0.735;-0.23
'0:08.312';-0.8;-0.145
'0:08.316';-0.12;-0.17
'0:08.320';-0.065;-0.22
'0:08.324';-0.68;-0.17
'0:08.328';-0.78;-0.105
'0:08.332';-0.145;-0.135
'0:08.336';0.04;-0.18
'0:08.340';-0.575;-0.155
'0:08.344';-0.765;-0.1
'0:08.348';-0.165;-0.065
'0:08.352';0.065;-0.13
'0:08.356';-0.49;-0.145
'0:08.360';-0.765;-0.05
'0:08.364';-0.185;-0.015
'0:08.368';0.155;-0.075
'0:08.372';-0.395;-0.06
'0:08.376';-0.745;0.025
'0:08.380';-0.22;0.07
'0:08.384';0.185;0.02
'0:08.388';-0.24;0.03
'0:08.392';-0.69;0.12
'0:08.396';-0.215;0.185
'0:08.400';0.27;0.135
'0:08.404';-0.105;0.12
'0:08.408';-0.6;0.215
'0:08.412';-0.175;0.26
'0:08.416';0.3;0.25
'0:08.420';-0.07;0.23
'0:08.424';-0.565;0.28
'0:08.428';-0.21;0.31
'0:08.432';0.345;0.27
'0:08.436';-0.005;0.23
'0:08.440';-0.515;0.275
'0:08.444';-0.2;0.305
'0:08.448';0.31;0.255
'0:08.452';0.015;0.25
'0:08.456';-0.585;0.2
'0:08.460';-0.335;0.255
'0:08.464';0.205;0.195
'0:08.468';-0.085;0.135
'0:08.472';-0.65;0.095
'0:08.476';-0.48;0.115
'0:08.480';0.15;0.035
'0:08.484';-0.11;-0.05
'0:08.488';-0.755;-0.04
'0:08.492';-0.585;-0.04
'0:08.496';0;-0.12
'0:08.500';-0.13;-0.22
'0:08.504';-0.79;-0.215
'0:08.508';-0.69;-0.2
'0:08.512';-0.08;-0.215
'0:08.516';-0.115;-0.315
'0:08.520';-0.755;-0.32
'0:08.524';-0.75;-0.24
'0:08.528';-0.11;-0.295
'0:08.532';0;-0.335
'0:08.536';-0.645;-0.335
'0:08.540';-0.815;-0.25
'0:08.544';-0.175;-0.305
'0:08.548';0.015;-0.33
'0:08.552';-0.625;-0.355
'0:08.556';-0.83;-0.29
'0:08.560';-0.21;-0.265
'0:08.564';0.03;-0.335
'0:08.568';-0.54;-0.375
'0:08.572';-0.785;-0.29
'0:08.576';-0.225;-0.25
'0:08.580';0;-0.36
'0:08.584';-0.61;-0.36
'0:08.588';-0.805;-0.29
'0:08.592';-0.2;-0.27
'0:08.596';0.04;-0.375
'0:08.600';-0.575;-0.36
'0:08.604';-0.8;-0.295
'0:08.608';-0.22;-0.31
'0:08.612';0.02;-0.36
'0:08.616';-0.565;-0.38
'0:08.620';-0.83;-0.3
'0:08.624';-0.285;-0.295
'0:08.628';0.04;-0.35
'0:08.632';-0.49;-0.385
'0:08.636';-0.875;-0.32
'0:08.640';-0.41;-0.295
'0:08.644';0.07;-0.36
'0:08.648';-0.335;-0.39
'0:08.652';-0.825;-0.34
'0:08.656';-0.47;-0.315
'0:08.660';0.04;-0.4
'0:08.664';-0.26;-0.43
'0:08.668';-0.88;-0.355
'0:08.672';-0.615;-0.305
'0:08.676';-0.02;-0.35
'0:08.680';-0.21;-0.41
'0:08.684';-0.82;-0.385
'0:08.688';-0.63;-0.32
'0:08.692';-0.045;-0.38
'0:08.696';-0.24;-0.42
'0:08.700';-0.81;-0.39
'0:08.704';-0.62;-0.34
'0:08.708';-0.06;-0.385
'0:08.712';-0.21;-0.445
'0:08.716';-0.815;-0.395
'0:08.720';-0.655;-0.345
'0:08.724';-0.06;-0.37
'0:08.728';-0.215;-0.425
'0:08.732';-0.845;-0.395
'0:08.736';-0.7;-0.31
'0:08.740';-0.1;-0.35
'0:08.744';-0.15;-0.415
'0:08.748';-0.8;-0.425
'0:08.752';-0.75;-0.355
'0:08.756';-0.125;-0.34
'0:08.760';-0.085;-0.415
'0:08.764';-0.735;-0.39
'0:08.768';-0.845;-0.385
'0:08.772';-0.22;-0.35
'0:08.776';0.02;-0.4
'0:08.780';-0.53;-0.395
'0:08.784';-0.835;-0.33
'0:08.788';-0.29;-0.28
'0:08.792';0.065;-0.31
'0:08.796';-0.385;-0.265
'0:08.800';-0.81;-0.17
'0:08.804';-0.34;-0.13
'0:08.808';0.15;-0.14
'0:08.812';-0.235;-0.16
'0:08.816';-0.75;-0.145
'0:08.820';-0.345;-0.19
'0:08.824';0.135;-0.285
'0:08.828';-0.33;-0.345
'0:08.832';-0.8;-0.39
'0:08.836';-0.4;-0.465
'0:08.840';0.015;-0.515
'0:08.844';-0.415;-0.495
'0:08.848';-0.855;-0.45
'0:08.852';-0.455;-0.4
'0:08.856';-0.025;-0.47
'0:08.860';-0.46;-0.495
'0:08.864';-0.98;-0.445
'0:08.868';-0.595;-0.38
'0:08.872';-0.07;-0.465
'0:08.876';-0.455;-0.495
'0:08.880';-1.025;-0.505
'0:08.884';-0.71;-0.45
'0:08.888';-0.12;-0.49
'0:08.892';-0.345;-0.575
'0:08.896';-0.94;-0.505
'0:08.900';-0.76;-0.415
'0:08.904';-0.14;-0.46
'0:08.908';-0.26;-0.525
'0:08.912';-0.9;-0.48
'0:08.916';-0.81;-0.395
'0:08.920';-0.155;-0.42
'0:08.924';-0.24;-0.455
'0:08.928';-0.915;-0.42
'0:08.932';-0.965;-0.165
'0:08.936';-0.18;0.06
'0:08.940';0.03;0.06
'0:08.944';-0.295;-0.015
'0:08.948';0.09;0.175
'0:08.952';1.08;0.475
'0:08.956';1.44;-0.065
'0:08.960';0.915;-0.85
'0:08.964';0.405;-1.345
'0:08.968';0.25;-1.605
'0:08.972';-0.26;-2.03
'0:08.976';-1.275;-2.33
'0:08.980';-1.565;-2.54
'0:08.984';-0.7;-2.54
'0:08.988';-0.45;-2.325
'0:08.992';-0.975;-1.83
'0:08.996';-0.905;-1.215
'0:09.000';-0.15;-0.82
'0:09.004';-0.11;-0.525
'0:09.008';-0.795;-0.335
'0:09.012';-0.88;-0.225
'0:09.016';-0.215;-0.24
'0:09.020';-0.135;-0.3
'0:09.024';-0.775;-0.25
'0:09.028';-0.88;-0.23
'0:09.032';-0.25;-0.215
'0:09.036';-0.07;-0.295
'0:09.040';-0.67;-0.295
'0:09.044';-0.9;-0.22
'0:09.048';-0.325;-0.225
'0:09.052';-0.04;-0.285
'0:09.056';-0.585;-0.29
'0:09.060';-0.93;-0.215
'0:09.064';-0.375;-0.215
'0:09.068';-0.03;-0.245
'0:09.072';-0.53;-0.3
'0:09.076';-0.895;-0.21
'0:09.080';-0.365;-0.18
'0:09.084';-0.02;-0.21
'0:09.088';-0.51;-0.245
'0:09.092';-0.89;-0.175
'0:09.096';-0.385;-0.135
'0:09.100';0.015;-0.19
'0:09.104';-0.46;-0.2
'0:09.108';-0.845;-0.095
'0:09.112';-0.375;-0.055
'0:09.116';0.065;-0.135
'0:09.120';-0.415;-0.09
'0:09.124';-0.835;-0.035
'0:09.128';-0.35;0.045
'0:09.132';0.115;0
'0:09.136';-0.295;-0.03
'0:09.140';-0.745;0.07
'0:09.144';-0.305;0.155
'0:09.148';0.2;0.095
'0:09.152';-0.15;0.09
'0:09.156';-0.705;0.205
'0:09.160';-0.365;0.23
'0:09.164';0.22;0.265
'0:09.168';0.05;0.2
'0:09.172';-0.56;0.3
'0:09.176';-0.43;0.345
'0:09.180';0.205;0.34
'0:09.184';0.13;0.29
'0:09.188';-0.52;0.335
'0:09.192';-0.47;0.375
'0:09.196';0.185;0.355
'0:09.200';0.205;0.285
'0:09.204';-0.435;0.305
'0:09.208';-0.53;0.35
'0:09.212';0.09;0.32
'0:09.216';0.135;0.27
'0:09.220';-0.545;0.215
'0:09.224';-0.635;0.245
'0:09.228';-0.025;0.215
'0:09.232';0.015;0.07
'0:09.236';-0.68;0.015
'0:09.240';-0.75;0.035
'0:09.244';-0.135;0.005
'0:09.248';-0.04;-0.095
'0:09.252';-0.66;-0.135
'0:09.256';-0.83;-0.16
'0:09.260';-0.245;-0.16
'0:09.264';-0.025;-0.245
'0:09.268';-0.64;-0.28
'0:09.272';-0.87;-0.24
'0:09.276';-0.35;-0.225
'0:09.280';0.005;-0.315
'0:09.284';-0.49;-0.305
'0:09.288';-0.95;-0.245
'0:09.292';-0.49;-0.27
'0:09.296';0.02;-0.32
'0:09.300';-0.31;-0.33
'0:09.304';-0.895;-0.32
'0:09.308';-0.605;-0.255
'0:09.312';0.005;-0.29
'0:09.316';-0.205;-0.35
'0:09.320';-0.815;-0.29
'0:09.324';-0.65;-0.225
'0:09.328';-0.02;-0.295
'0:09.332';-0.15;-0.32
'0:09.336';-0.78;-0.275
'0:09.340';-0.69;-0.2
'0:09.344';-0.07;-0.245
'0:09.348';-0.115;-0.3
'0:09.352';-0.8;-0.275
'0:09.356';-0.66;-0.195
'0:09.360';-0.025;-0.23
'0:09.364';-0.14;-0.275
'0:09.368';-0.76;-0.265
'0:09.372';-0.655;-0.255
'0:09.376';-0.01;-0.25
'0:09.380';-0.105;-0.28
'0:09.384';-0.76;-0.28
'0:09.388';-0.73;-0.21
'0:09.392';-0.085;-0.24
'0:09.396';-0.07;-0.3
'0:09.400';-0.71;-0.26
'0:09.404';-0.73;-0.205
'0:09.408';-0.105;-0.24
'0:09.412';0.035;-0.29
'0:09.416';-0.62;-0.315
'0:09.420';-0.84;-0.26
'0:09.424';-0.26;-0.27
'0:09.428';0.03;-0.285
'0:09.432';-0.49;-0.32
'0:09.436';-0.88;-0.25
'0:09.440';-0.36;-0.23
'0:09.444';0.04;-0.3
'0:09.448';-0.405;-0.345
'0:09.452';-0.87;-0.245
'0:09.456';-0.41;-0.255
'0:09.460';0.01;-0.325
'0:09.464';-0.43;-0.35
'0:09.468';-0.895;-0.275
'0:09.472';-0.435;-0.23
'0:09.476';0.02;-0.285
'0:09.480';-0.425;-0.33
'0:09.484';-0.85;-0.285
'0:09.488';-0.385;-0.25
'0:09.492';0.06;-0.32
'0:09.496';-0.44;-0.335
'0:09.500';-0.86;-0.31
'0:09.504';-0.42;-0.27
'0:09.508';0.055;-0.32
'0:09.512';-0.415;-0.34
'0:09.516';-0.855;-0.31
'0:09.520';-0.38;-0.25
'0:09.524';0.075;-0.305
'0:09.528';-0.34;-0.34
'0:09.532';-0.785;-0.275
'0:09.536';-0.335;-0.2
'0:09.540';0.135;-0.21
'0:09.544';-0.225;-0.175
'0:09.548';-0.765;-0.11
'0:09.552';-0.405;-0.045
'0:09.556';0.15;-0.035
'0:09.560';-0.05;-0.065
'0:09.564';-0.64;-0.045
'0:09.568';-0.4;-0.08
'0:09.572';0.165;-0.15
'0:09.576';-0.14;-0.275
'0:09.580';-0.735;-0.32
'0:09.584';-0.545;-0.365
'0:09.588';0.05;-0.46
'0:09.592';-0.12;-0.44
'0:09.596';-0.77;-0.435
'0:09.600';-0.6;-0.32
'0:09.604';0;-0.4
'0:09.608';-0.155;-0.45
'0:09.612';-0.82;-0.415
'0:09.616';-0.77;-0.33
'0:09.620';-0.165;-0.345
'0:09.624';-0.22;-0.44
'0:09.628';-0.85;-0.405
'0:09.632';-0.8;-0.37
'0:09.636';-0.16;-0.375
'0:09.640';-0.135;-0.49
'0:09.644';-0.785;-0.44
'0:09.648';-0.83;-0.415
'0:09.652';-0.19;-0.395
'0:09.656';-0.09;-0.465
'0:09.660';-0.73;-0.445
'0:09.664';-0.895;-0.35
'0:09.668';-0.28;-0.37
'0:09.672';-0.04;-0.425
'0:09.676';-0.66;-0.35
'0:09.680';-1.04;-0.145
'0:09.684';-0.41;0.095
'0:09.688';0.13;0.125
'0:09.692';-0.09;0.06
'0:09.696';-0.18;0.195
'0:09.700';0.61;0.47
'0:09.704';1.455;-0.09
'0:09.708';1.34;-0.93
'0:09.712';0.71;-1.52
'0:09.716';0.31;-1.815
'0:09.720';0.225;-2.16
'0:09.724';-0.54;-2.54
'0:09.728';-1.55;-2.845
'0:09.732';-1.31;-2.83
'0:09.736';-0.41;-2.595
'0:09.740';-0.505;-2.06
'0:09.744';-0.96;-1.4
'0:09.748';-0.66;-0.84
'0:09.752';-0.07;-0.465
'0:09.756';-0.215;-0.33
'0:09.760';-0.89;-0.265
'0:09.764';-0.785;-0.195
'0:09.768';-0.14;-0.2
'0:09.772';-0.23;-0.265
'0:09.776';-0.87;-0.22
'0:09.780';-0.79;-0.165
'0:09.784';-0.15;-0.18
'0:09.788';-0.125;-0.25
'0:09.792';-0.78;-0.21
'0:09.796';-0.79;-0.155
'0:09.800';-0.17;-0.185
'0:09.804';-0.045;-0.21
'0:09.808';-0.68;-0.195
'0:09.812';-0.89;-0.1
'0:09.816';-0.31;-0.1
'0:09.820';-0.01;-0.16
'0:09.824';-0.55;-0.18
'0:09.828';-0.915;-0.08
'0:09.832';-0.4;-0.055
'0:09.836';0.02;-0.12
'0:09.840';-0.375;-0.135
'0:09.844';-0.86;-0.07
'0:09.848';-0.46;-0.02
'0:09.852';0.035;-0.095
'0:09.856';-0.335;-0.105
'0:09.860';-0.86;-0.03
'0:09.864';-0.51;0.025
'0:09.868';0.05;0.02
'0:09.872';-0.22;0.01
'0:09.876';-0.78;0.035
'0:09.880';-0.48;0.13
'0:09.884';0.105;0.12
'0:09.888';-0.135;0.09
'0:09.892';-0.705;0.145
'0:09.896';-0.5;0.235
'0:09.900';0.105;0.25
'0:09.904';-0.03;0.21
'0:09.908';-0.61;0.265
'0:09.912';-0.385;0.38
'0:09.916';0.225;0.345
'0:09.920';0.08;0.28
'0:09.924';-0.55;0.36
'0:09.928';-0.435;0.395
'0:09.932';0.19;0.385
'0:09.936';0.21;0.365
'0:09.940';-0.415;0.365
'0:09.944';-0.53;0.455
'0:09.948';0.065;0.45
'0:09.952';0.255;0.385
'0:09.956';-0.31;0.33
'0:09.960';-0.62;0.42
'0:09.964';-0.09;0.375
'0:09.968';0.195;0.295
'0:09.972';-0.365;0.21
'0:09.976';-0.74;0.28
'0:09.980';-0.285;0.255
'0:09.984';0.105;0.165
'0:09.988';-0.435;0.06
'0:09.992';-0.825;0.06
'0:09.996';-0.35;0.06
'0:10.000';0;-0.05
'0:10.004';-0.52;-0.125
'0:10.008';-0.885;-0.125
'0:10.012';-0.395;-0.11
'0:10.016';-0.045;-0.225
'0:10.020';-0.575;-0.25
'0:10.024';-0.905;-0.24
'0:10.028';-0.39;-0.215
'0:10.032';0;-0.32
'0:10.036';-0.505;-0.3
'0:10.040';-0.92;-0.265
'0:10.044';-0.44;-0.24
'0:10.048';-0.01;-0.3
'0:10.052';-0.375;-0.33
'0:10.056';-0.9;-0.27
'0:10.060';-0.58;-0.205
'0:10.064';0;-0.24
'0:10.068';-0.2;-0.34
'0:10.072';-0.84;-0.27
'0:10.076';-0.715;-0.195
'0:10.080';-0.045;-0.25
'0:10.084';-0.105;-0.28
'0:10.088';-0.74;-0.28
'0:10.092';-0.76;-0.12
'0:10.096';-0.105;-0.07
'0:10.100';0.02;-0.13
'0:10.104';-0.64;-0.25
'0:10.108';-0.855;-0.255
'0:10.112';-0.26;-0.24
'0:10.116';-0.02;-0.275
'0:10.120';-0.58;-0.31
'0:10.124';-0.88;-0.23
'0:10.128';-0.325;-0.215
'0:10.132';-0.025;-0.275
'0:10.136';-0.59;-0.3
'0:10.140';-0.9;-0.24
'0:10.144';-0.375;-0.19
'0:10.148';0.01;-0.24
'0:10.152';-0.47;-0.3
'0:10.156';-0.885;-0.24
'0:10.160';-0.47;-0.205
'0:10.164';0.01;-0.255
'0:10.168';-0.315;-0.29
'0:10.172';-0.9;-0.25
'0:10.176';-0.665;-0.22
'0:10.180';-0.045;-0.28
'0:10.184';-0.2;-0.32
'0:10.188';-0.825;-0.28
'0:10.192';-0.73;-0.22
'0:10.196';-0.125;-0.265
'0:10.200';-0.08;-0.28
'0:10.204';-0.71;-0.295
'0:10.208';-0.83;-0.195
'0:10.212';-0.195;-0.205
'0:10.216';0;-0.275
'0:10.220';-0.57;-0.315
'0:10.224';-0.88;-0.22
'0:10.228';-0.32;-0.23
'0:10.232';0.04;-0.285
'0:10.236';-0.47;-0.325
'0:10.240';-0.875;-0.26
'0:10.244';-0.46;-0.195
'0:10.248';0.02;-0.3
'0:10.252';-0.365;-0.29
'0:10.256';-0.865;-0.26
'0:10.260';-0.515;-0.195
'0:10.264';0.015;-0.245
'0:10.268';-0.265;-0.285
'0:10.272';-0.84;-0.25
'0:10.276';-0.57;-0.205
'0:10.280';0.065;-0.19
'0:10.284';-0.075;-0.275
'0:10.288';-0.705;-0.21
'0:10.292';-0.595;-0.11
'0:10.296';0.035;-0.08
'0:10.300';-0.005;-0.085
'0:10.304';-0.625;-0.045
'0:10.308';-0.595;0.065
'0:10.312';0.085;0.035
'0:10.316';0.18;-0.065
'0:10.320';-0.46;-0.155
'0:10.324';-0.73;-0.115
'0:10.328';-0.185;-0.15
'0:10.332';0.13;-0.29
'0:10.336';-0.39;-0.445
'0:10.340';-0.83;-0.37
'0:10.344';-0.38;-0.33
'0:10.348';0.08;-0.365
'0:10.352';-0.315;-0.37
'0:10.356';-0.87;-0.34
'0:10.360';-0.575;-0.33
'0:10.364';-0.05;-0.345
'0:10.368';-0.355;-0.36
'0:10.372';-0.94;-0.335
'0:10.376';-0.755;-0.295
'0:10.380';-0.12;-0.34
'0:10.384';-0.19;-0.41
'0:10.388';-0.845;-0.4
'0:10.392';-0.85;-0.35
'0:10.396';-0.22;-0.35
'0:10.400';-0.1;-0.395
'0:10.404';-0.745;-0.415
'0:10.408';-0.875;-0.35
'0:10.412';-0.27;-0.325
'0:10.416';-0.07;-0.385
'0:10.420';-0.66;-0.39
'0:10.424';-0.925;-0.32
'0:10.428';-0.395;-0.29
'0:10.432';-0.14;-0.23
'0:10.436';-0.635;0.02
'0:10.440';-0.84;0.26
'0:10.444';-0.1;0.235
'0:10.448';0.68;0.215
'0:10.452';0.655;0.445
'0:10.456';0.55;0.18
'0:10.460';1.12;-0.555
'0:10.464';1.645;-1.275
'0:10.468';0.795;-1.725
'0:10.472';-0.46;-1.99
'0:10.476';-0.855;-2.32
'0:10.480';-0.635;-2.55
'0:10.484';-0.755;-2.725
'0:10.488';-1.22;-2.89
'0:10.492';-1.14;-2.37
'0:10.496';-0.305;-1.625
'0:10.500';-0.065;-1.1
'0:10.504';-0.66;-0.695
'0:10.508';-0.86;-0.3
'0:10.512';-0.27;-0.19
'0:10.516';-0.075;-0.195
'0:10.520';-0.655;-0.15
'0:10.524';-0.88;-0.135
'0:10.528';-0.31;-0.11
'0:10.532';-0.085;-0.195
'0:10.536';-0.67;-0.17
'0:10.540';-0.9;-0.1
'0:10.544';-0.28;-0.105
'0:10.548';-0.01;-0.165
'0:10.552';-0.61;-0.18
'0:10.556';-0.88;-0.105
'0:10.560';-0.28;-0.12
'0:10.564';0.01;-0.13
'0:10.568';-0.515;-0.18
'0:10.572';-0.86;-0.13
'0:10.576';-0.36;-0.08
'0:10.580';0.03;-0.155
'0:10.584';-0.48;-0.155
'0:10.588';-0.91;-0.05
'0:10.592';-0.44;-0.05
'0:10.596';0.07;-0.11
'0:10.600';-0.32;-0.11
'0:10.604';-0.845;-0.075
'0:10.608';-0.535;0.03
'0:10.612';0.07;-0.005
'0:10.616';-0.15;-0.08
'0:10.620';-0.74;-0.025
'0:10.624';-0.56;0.085
'0:10.628';0.07;0.07
'0:10.632';-0.06;0.015
'0:10.636';-0.67;0.075
'0:10.640';-0.55;0.145
'0:10.644';0.08;0.17
'0:10.648';0.03;0.12
'0:10.652';-0.575;0.205
'0:10.656';-0.495;0.3
'0:10.660';0.165;0.29
'0:10.664';0.15;0.26
'0:10.668';-0.49;0.3
'0:10.672';-0.485;0.415
'0:10.676';0.155;0.385
'0:10.680';0.28;0.385
'0:10.684';-0.355;0.355
'0:10.688';-0.51;0.405
'0:10.692';0.11;0.38
'0:10.696';0.33;0.375
'0:10.700';-0.31;0.345
'0:10.704';-0.585;0.41
'0:10.708';0.01;0.445
'0:10.712';0.28;0.405
'0:10.716';-0.25;0.32
'0:10.720';-0.69;0.35
'0:10.724';-0.19;0.34
'0:10.728';0.245;0.285
'0:10.732';-0.2;0.195
'0:10.736';-0.77;0.195
'0:10.740';-0.43;0.18
'0:10.744';0.075;0.095
'0:10.748';-0.24;0.04
'0:10.752';-0.86;-0.025
'0:10.756';-0.61;0
'0:10.760';-0.025;-0.095
'0:10.764';-0.255;-0.16
'0:10.768';-0.875;-0.16
'0:10.772';-0.685;-0.14
'0:10.776';-0.04;-0.23
'0:10.780';-0.19;-0.31
'0:10.784';-0.82;-0.275
'0:10.788';-0.705;-0.265
'0:10.792';-0.09;-0.315
'0:10.796';-0.15;-0.36
'0:10.800';-0.795;-0.35
'0:10.804';-0.74;-0.295
'0:10.808';-0.115;-0.325
'0:10.812';-0.09;-0.395
'0:10.816';-0.72;-0.355
'0:10.820';-0.81;-0.3
'0:10.824';-0.175;-0.29
'0:10.828';-0.025;-0.38
'0:10.832';-0.65;-0.335
'0:10.836';-0.85;-0.28
'0:10.840';-0.26;-0.26
'0:10.844';0.01;-0.32
'0:10.848';-0.51;-0.325
'0:10.852';-0.89;-0.26
'0:10.856';-0.345;-0.26
'0:10.860';0.04;-0.315
'0:10.864';-0.42;-0.35
'0:10.868';-0.905;-0.29
'0:10.872';-0.465;-0.23
'0:10.876';0.005;-0.305
'0:10.880';-0.37;-0.33
'0:10.884';-0.89;-0.29
'0:10.888';-0.565;-0.245
'0:10.892';-0.005;-0.28
'0:10.896';-0.275;-0.35
'0:10.900';-0.87;-0.3
'0:10.904';-0.64;-0.265
'0:10.908';-0.03;-0.305
'0:10.912';-0.25;-0.34
'0:10.916';-0.875;-0.37
'0:10.920';-0.6;-0.28
'0:10.924';-0.015;-0.345
'0:10.928';-0.25;-0.375
'0:10.932';-0.875;-0.355
'0:10.936';-0.655;-0.31
'0:10.940';-0.06;-0.32
'0:10.944';-0.21;-0.395
'0:10.948';-0.865;-0.34
'0:10.952';-0.695;-0.3
'0:10.956';-0.06;-0.34
'0:10.960';-0.165;-0.41
'0:10.964';-0.8;-0.365
'0:10.968';-0.74;-0.315
'0:10.972';-0.115;-0.3
'0:10.976';-0.16;-0.39
'0:10.980';-0.815;-0.395
'0:10.984';-0.81;-0.33
'0:10.988';-0.16;-0.35
'0:10.992';-0.12;-0.385
'0:10.996';-0.765;-0.38
'0:11.000';-0.86;-0.32
'0:11.004';-0.25;-0.32
'0:11.008';-0.06;-0.42
'0:11.012';-0.65;-0.39
'0:11.016';-0.865;-0.36
'0:11.020';-0.285;-0.33
'0:11.024';0;-0.37
'0:11.028';-0.595;-0.34
'0:11.032';-0.82;-0.3
'0:11.036';-0.24;-0.3
'0:11.040';0.055;-0.32
'0:11.044';-0.51;-0.285
'0:11.048';-0.79;-0.17
'0:11.052';-0.255;-0.13
'0:11.056';0.03;-0.185
'0:11.060';-0.475;-0.17
'0:11.064';-0.68;-0.085
'0:11.068';-0.165;-0.12
'0:11.072';0.115;-0.225
'0:11.076';-0.45;-0.305
'0:11.080';-0.77;-0.265
'0:11.084';-0.235;-0.375
'0:11.088';0.02;-0.485
'0:11.092';-0.54;-0.505
'0:11.096';-0.855;-0.415
'0:11.100';-0.32;-0.375
'0:11.104';-0.015;-0.445
'0:11.108';-0.545;-0.48
'0:11.112';-0.985;-0.42
'0:11.116';-0.58;-0.355
'0:11.120';-0.095;-0.39
'0:11.124';-0.46;-0.445
'0:11.128';-0.985;-0.435
'0:11.132';-0.705;-0.38
'0:11.136';-0.11;-0.425
'0:11.140';-0.3;-0.5
'0:11.144';-0.905;-0.44
'0:11.148';-0.77;-0.4
'0:11.152';-0.16;-0.435
'0:11.156';-0.22;-0.54
'0:11.160';-0.84;-0.46
'0:11.164';-0.785;-0.415
'0:11.168';-0.165;-0.445
'0:11.172';-0.18;-0.51
'0:11.176';-0.875;-0.46
'0:11.180';-0.915;-0.355
'0:11.184';-0.36;-0.175
'0:11.188';-0.205;0.005
'0:11.192';-0.59;0.095
'0:11.196';-0.335;0.105
'0:11.200';0.645;0.175
'0:11.204';1.125;0.44
'0:11.208';0.89;0.13
'0:11.212';0.89;-0.61
'0:11.216';1.07;-1.23
'0:11.220';0.46;-1.555
'0:11.224';-0.67;-1.89
'0:11.228';-1.375;-2.225
'0:11.232';-1.085;-2.375
'0:11.236';-0.6;-2.555
'0:11.240';-0.855;-2.6
'0:11.244';-1.265;-2.135
'0:11.248';-0.65;-1.48
'0:11.252';0.005;-1.07
'0:11.256';-0.365;-0.71
'0:11.260';-0.915;-0.35
'0:11.264';-0.665;-0.21
'0:11.268';-0.06;-0.23
'0:11.272';-0.28;-0.295
'0:11.276';-0.915;-0.265
'0:11.280';-0.72;-0.215
'0:11.284';-0.1;-0.235
'0:11.288';-0.175;-0.285
'0:11.292';-0.805;-0.24
'0:11.296';-0.71;-0.2
'0:11.300';-0.105;-0.17
'0:11.304';-0.155;-0.26
'0:11.308';-0.82;-0.245
'0:11.312';-0.715;-0.185
'0:11.316';-0.09;-0.17
'0:11.320';-0.115;-0.26
'0:11.324';-0.79;-0.19
'0:11.328';-0.75;-0.145
'0:11.332';-0.085;-0.185
'0:11.336';-0.14;-0.205
'0:11.340';-0.79;-0.155
'0:11.344';-0.72;-0.09
'0:11.348';-0.08;-0.125
'0:11.352';-0.04;-0.185
'0:11.356';-0.66;-0.18
'0:11.360';-0.735;-0.055
'0:11.364';-0.075;-0.085
'0:11.368';0.03;-0.12
'0:11.372';-0.57;-0.1
'0:11.376';-0.74;0
'0:11.380';-0.13;-0.01
'0:11.384';0.07;-0.015
'0:11.388';-0.53;-0.04
'0:11.392';-0.72;0.04
'0:11.396';-0.135;0.11
'0:11.400';0.2;0.045
'0:11.404';-0.305;0.065
'0:11.408';-0.625;0.125
'0:11.412';-0.105;0.195
'0:11.416';0.235;0.195
'0:11.420';-0.3;0.19
'0:11.424';-0.615;0.25
'0:11.428';-0.03;0.3
'0:11.432';0.295;0.235
'0:11.436';-0.19;0.24
'0:11.440';-0.55;0.285
'0:11.444';-0.025;0.28
'0:11.448';0.295;0.25
'0:11.452';-0.23;0.225
'0:11.456';-0.58;0.31
'0:11.460';-0.075;0.295
'0:11.464';0.27;0.245
'0:11.468';-0.25;0.19
'0:11.472';-0.645;0.215
'0:11.476';-0.175;0.2
'0:11.480';0.12;0.085
'0:11.484';-0.4;0.035
'0:11.488';-0.8;0.045
'0:11.492';-0.315;0.025
'0:11.496';0.035;-0.07
'0:11.500';-0.465;-0.145
'0:11.504';-0.885;-0.13
'0:11.508';-0.39;-0.085
'0:11.512';0.045;-0.205
'0:11.516';-0.345;-0.275
'0:11.520';-0.865;-0.26
'0:11.524';-0.47;-0.235
'0:11.528';0.02;-0.305
'0:11.532';-0.385;-0.33
'0:11.536';-0.89;-0.29
'0:11.540';-0.515;-0.265
'0:11.544';0.01;-0.305
'0:11.548';-0.325;-0.345
'0:11.552';-0.875;-0.28
'0:11.556';-0.555;-0.255
'0:11.560';0.01;-0.3
'0:11.564';-0.3;-0.385
'0:11.568';-0.875;-0.29
'0:11.572';-0.57;-0.245
'0:11.576';-0.015;-0.305
'0:11.580';-0.265;-0.38
'0:11.584';-0.845;-0.32
'0:11.588';-0.54;-0.265
'0:11.592';0.02;-0.28
'0:11.596';-0.22;-0.36
'0:11.600';-0.84;-0.3
'0:11.604';-0.63;-0.26
'0:11.608';-0.03;-0.26
'0:11.612';-0.23;-0.34
'0:11.616';-0.84;-0.29
'0:11.620';-0.685;-0.23
'0:11.624';-0.01;-0.27
'0:11.628';-0.135;-0.37
'0:11.632';-0.77;-0.33
'0:11.636';-0.71;-0.26
'0:11.640';-0.065;-0.28
'0:11.644';-0.015;-0.355
'0:11.648';-0.7;-0.37
'0:11.652';-0.795;-0.3
'0:11.656';-0.17;-0.25
'0:11.660';0.005;-0.34
'0:11.664';-0.615;-0.345
'0:11.668';-0.855;-0.295
'0:11.672';-0.26;-0.28
'0:11.676';0.025;-0.39
'0:11.680';-0.56;-0.4
'0:11.684';-0.9;-0.36
'0:11.688';-0.345;-0.33
'0:11.692';0.005;-0.375
'0:11.696';-0.505;-0.39
'0:11.700';-0.865;-0.325
'0:11.704';-0.315;-0.32
'0:11.708';0.02;-0.36
'0:11.712';-0.525;-0.425
'0:11.716';-0.9;-0.33
'0:11.720';-0.38;-0.32
'0:11.724';0;-0.405
'0:11.728';-0.49;-0.39
'0:11.732';-0.885;-0.31
'0:11.736';-0.375;-0.315
'0:11.740';0.03;-0.375
'0:11.744';-0.42;-0.425
'0:11.748';-0.87;-0.375
'0:11.752';-0.465;-0.28
'0:11.756';0.04;-0.375
'0:11.760';-0.325;-0.41
'0:11.764';-0.895;-0.38
'0:11.768';-0.655;-0.3
'0:11.772';-0.055;-0.385
'0:11.776';-0.21;-0.4
'0:11.780';-0.85;-0.41
'0:11.784';-0.7;-0.295
'0:11.788';-0.05;-0.315
'0:11.792';-0.04;-0.405
'0:11.796';-0.68;-0.34
'0:11.800';-0.67;-0.21
'0:11.804';-0.035;-0.155
'0:11.808';0.01;-0.24
'0:11.812';-0.66;-0.17
'0:11.816';-0.6;-0.095
'0:11.820';0.025;-0.085
'0:11.824';0.085;-0.195
'0:11.828';-0.54;-0.255
'0:11.832';-0.64;-0.265
'0:11.836';-0.075;-0.35
'0:11.840';-0.04;-0.45
'0:11.844';-0.665;-0.54
'0:11.848';-0.725;-0.44
'0:11.852';-0.13;-0.47
'0:11.856';-0.075;-0.475
'0:11.860';-0.69;-0.54
'0:11.864';-0.805;-0.435
'0:11.868';-0.235;-0.45
'0:11.872';-0.16;-0.48
'0:11.876';-0.795;-0.47
'0:11.880';-0.93;-0.41
'0:11.884';-0.33;-0.445
'0:11.888';-0.16;-0.5
'0:11.892';-0.7;-0.495
'0:11.896';-1.005;-0.455
'0:11.900';-0.45;-0.42
'0:11.904';-0.09;-0.51
'0:11.908';-0.6;-0.53
'0:11.912';-0.955;-0.485
'0:11.916';-0.46;-0.425
'0:11.920';-0.065;-0.485
'0:11.924';-0.495;-0.505
'0:11.928';-0.95;-0.47
'0:11.932';-0.57;-0.375
'0:11.936';-0.16;-0.32
'0:11.940';-0.565;-0.105
'0:11.944';-0.86;0.07
'0:11.948';-0.22;0.105
'0:11.952';0.595;0.045
'0:11.956';0.625;0.26
'0:11.960';0.54;0.295
'0:11.964';1.155;-0.425
'0:11.968';1.475;-1.2
'0:11.972';0.42;-1.61
'0:11.976';-0.76;-1.85
'0:11.980';-0.835;-2.125
'0:11.984';-0.67;-2.305
'0:11.988';-1.05;-2.7
'0:11.992';-1.41;-2.725
'0:11.996';-0.94;-2.12
'0:12.000';-0.17;-1.52
'0:12.004';-0.315;-1.085
'0:12.008';-0.86;-0.655
'0:12.012';-0.68;-0.31
'0:12.016';-0.095;-0.24
'0:12.020';-0.315;-0.29
'0:12.024';-0.92;-0.255
'0:12.028';-0.735;-0.2
'0:12.032';-0.095;-0.23
'0:12.036';-0.21;-0.26
'0:12.040';-0.85;-0.23
'0:12.044';-0.755;-0.2
'0:12.048';-0.125;-0.195
'0:12.052';-0.14;-0.28
'0:12.056';-0.76;-0.24
'0:12.060';-0.78;-0.16
'0:12.064';-0.175;-0.175
'0:12.068';-0.085;-0.21
'0:12.072';-0.72;-0.24
'0:12.076';-0.815;-0.16
'0:12.080';-0.175;-0.19
'0:12.084';-0.06;-0.225
'0:12.088';-0.675;-0.19
'0:12.092';-0.77;-0.14
'0:12.096';-0.165;-0.1
'0:12.100';-0.06;-0.165
'0:12.104';-0.67;-0.18
'0:12.108';-0.78;-0.105
'0:12.112';-0.155;-0.105
'0:12.116';-0.01;-0.14
'0:12.120';-0.595;-0.14
'0:12.124';-0.75;-0.035
'0:12.128';-0.125;-0.005
'0:12.132';0.075;-0.03
'0:12.136';-0.51;-0.02
'0:12.140';-0.71;0.075
'0:12.144';-0.12;0.11
'0:12.148';0.19;0.12
'0:12.152';-0.385;0.1
'0:12.156';-0.69;0.175
'0:12.160';-0.155;0.26
'0:12.164';0.26;0.2
'0:12.168';-0.215;0.235
'0:12.172';-0.665;0.31
'0:12.176';-0.245;0.355
'0:12.180';0.29;0.345
'0:12.184';-0.025;0.31
'0:12.188';-0.58;0.375
'0:12.192';-0.28;0.415
'0:12.196';0.295;0.385
'0:12.200';0.09;0.35
'0:12.204';-0.53;0.35
'0:12.208';-0.37;0.385
'0:12.212';0.205;0.38
'0:12.216';0.09;0.28
'0:12.220';-0.57;0.28
'0:12.224';-0.535;0.35
'0:12.228';0.065;0.26
'0:12.232';0.055;0.165
'0:12.236';-0.635;0.13
'0:12.240';-0.685;0.16
'0:12.244';-0.07;0.065
'0:12.248';-0.015;-0.005
'0:12.252';-0.66;-0.06
'0:12.256';-0.815;-0.035
'0:12.260';-0.19;-0.075
'0:12.264';0.01;-0.185
'0:12.268';-0.61;-0.22
'0:12.272';-0.905;-0.195
'0:12.276';-0.335;-0.16
'0:12.280';0.045;-0.29
'0:12.284';-0.455;-0.295
'0:12.288';-0.925;-0.28
'0:12.292';-0.49;-0.22
'0:12.296';0.03;-0.29
'0:12.300';-0.285;-0.345
'0:12.304';-0.865;-0.285
'0:12.308';-0.585;-0.23
'0:12.312';-0.015;-0.26
'0:12.316';-0.17;-0.35
'0:12.320';-0.785;-0.33
'0:12.324';-0.695;-0.29
'0:12.328';-0.065;-0.295
'0:12.332';-0.1;-0.35
'0:12.336';-0.75;-0.3
'0:12.340';-0.74;-0.24
'0:12.344';-0.09;-0.29
'0:12.348';-0.03;-0.32
'0:12.352';-0.67;-0.28
'0:12.356';-0.69;-0.205
'0:12.360';-0.065;-0.235
'0:12.364';-0.035;-0.295
'0:12.368';-0.685;-0.305
'0:12.372';-0.725;-0.22
'0:12.376';-0.095;-0.235
'0:12.380';-0.015;-0.27
'0:12.384';-0.66;-0.275
'0:12.388';-0.735;-0.235
'0:12.392';-0.105;-0.235
'0:12.396';0.065;-0.27
'0:12.400';-0.59;-0.275
'0:12.404';-0.835;-0.27
'0:12.408';-0.285;-0.215
'0:12.412';0.09;-0.33
'0:12.416';-0.435;-0.32
'0:12.420';-0.86;-0.28
'0:12.424';-0.41;-0.225
'0:12.428';0.11;-0.3
'0:12.432';-0.25;-0.32
'0:12.436';-0.82;-0.27
'0:12.440';-0.55;-0.265
'0:12.444';0.02;-0.28
'0:12.448';-0.185;-0.345
'0:12.452';-0.795;-0.255
'0:12.456';-0.64;-0.26
'0:12.460';-0.025;-0.27
'0:12.464';-0.135;-0.34
'0:12.468';-0.76;-0.315
'0:12.472';-0.645;-0.235
'0:12.476';-0.04;-0.295
'0:12.480';-0.115;-0.34
'0:12.484';-0.755;-0.32
'0:12.488';-0.665;-0.275
'0:12.492';-0.03;-0.32
'0:12.496';-0.09;-0.335
'0:12.500';-0.75;-0.34
'0:12.504';-0.7;-0.28
'0:12.508';-0.065;-0.32
'0:12.512';-0.05;-0.37
'0:12.516';-0.66;-0.37
'0:12.520';-0.76;-0.315
'0:12.524';-0.145;-0.295
'0:12.528';0.005;-0.355
'0:12.532';-0.61;-0.385
'0:12.536';-0.785;-0.265
'0:12.540';-0.155;-0.24
'0:12.544';0.15;-0.365
'0:12.548';-0.375;-0.33
'0:12.552';-0.725;-0.215
'0:12.556';-0.22;-0.14
'0:12.560';0.18;-0.13
'0:12.564';-0.26;-0.16
'0:12.568';-0.7;-0.05
'0:12.572';-0.265;-0.01
'0:12.576';0.255;-0.1
'0:12.580';-0.09;-0.2
'0:12.584';-0.68;-0.19
'0:12.588';-0.39;-0.185
'0:12.592';0.14;-0.295
'0:12.596';-0.115;-0.48
'0:12.600';-0.72;-0.45
'0:12.604';-0.52;-0.4
'0:12.608';0.05;-0.395
'0:12.612';-0.13;-0.48
'0:12.616';-0.755;-0.42
'0:12.620';-0.675;-0.385
'0:12.624';-0.09;-0.39
'0:12.628';-0.16;-0.41
'0:12.632';-0.785;-0.42
'0:12.636';-0.82;-0.325
'0:12.640';-0.175;-0.375
'0:12.644';-0.095;-0.47
'0:12.648';-0.705;-0.47
'0:12.652';-0.87;-0.395
'0:12.656';-0.255;-0.36
'0:12.660';0.02;-0.445
'0:12.664';-0.515;-0.47
'0:12.668';-0.885;-0.39
'0:12.672';-0.4;-0.395
'0:12.676';0.075;-0.435
'0:12.680';-0.34;-0.435
'0:12.684';-0.895;-0.38
'0:12.688';-0.655;-0.32
'0:12.692';-0.11;-0.27
'0:12.696';-0.345;-0.11
'0:12.700';-0.815;0.13
'0:12.704';-0.415;0.205
'0:12.708';0.49;0.145
'0:12.712';0.835;0.245
'0:12.716';0.565;0.28
'0:12.720';0.835;-0.42
'0:12.724';1.57;-1.2
'0:12.728';1.305;-1.775
'0:12.732';0;-2.005
'0:12.736';-0.84;-2.315
'0:12.740';-0.745;-2.5
'0:12.744';-0.61;-2.65
'0:12.748';-0.965;-2.89
'0:12.752';-1.295;-2.675
'0:12.756';-0.7;-1.835
'0:12.760';0.025;-1.27
'0:12.764';-0.27;-0.875
'0:12.768';-0.88;-0.44
'0:12.772';-0.65;-0.225
'0:12.776';-0.04;-0.21
'0:12.780';-0.235;-0.275
'0:12.784';-0.85;-0.235
'0:12.788';-0.775;-0.195
'0:12.792';-0.105;-0.195
'0:12.796';-0.045;-0.275
'0:12.800';-0.71;-0.255
'0:12.804';-0.87;-0.205
'0:12.808';-0.285;-0.16
'0:12.812';0.015;-0.235
'0:12.816';-0.535;-0.23
'0:12.820';-0.895;-0.155
'0:12.824';-0.39;-0.135
'0:12.828';0.085;-0.185
'0:12.832';-0.32;-0.23
'0:12.836';-0.88;-0.165
'0:12.840';-0.54;-0.115
'0:12.844';0.025;-0.15
'0:12.848';-0.22;-0.185
'0:12.852';-0.835;-0.165
'0:12.856';-0.65;-0.1
'0:12.860';-0.03;-0.12
'0:12.864';-0.105;-0.205
'0:12.868';-0.72;-0.14
'0:12.872';-0.655;-0.05
'0:12.876';-0.025;-0.055
'0:12.880';-0.05;-0.1
'0:12.884';-0.655;-0.06
'0:12.888';-0.65;0.03
'0:12.892';-0.005;0.015
'0:12.896';0.04;0.005
'0:12.900';-0.56;0.045
'0:12.904';-0.61;0.115
'0:12.908';0.015;0.145
'0:12.912';0.195;0.12
'0:12.916';-0.42;0.12
'0:12.920';-0.6;0.25
'0:12.924';-0.005;0.275
'0:12.928';0.265;0.195
'0:12.932';-0.32;0.275
'0:12.936';-0.58;0.345
'0:12.940';-0.015;0.395
'0:12.944';0.395;0.335
'0:12.948';-0.07;0.325
'0:12.952';-0.52;0.38
'0:12.956';-0.065;0.405
'0:12.960';0.395;0.395
'0:12.964';0.045;0.345
'0:12.968';-0.55;0.395
'0:12.972';-0.305;0.43
'0:12.976';0.275;0.4
'0:12.980';0.09;0.325
'0:12.984';-0.57;0.35
'0:12.988';-0.465;0.34
'0:12.992';0.145;0.3
'0:12.996';0.025;0.19
'0:13.000';-0.665;0.17
'0:13.004';-0.59;0.17
'0:13.008';0.01;0.095
'0:13.012';-0.075;0.005
'0:13.016';-0.72;-0.05
'0:13.020';-0.715;-0.035
'0:13.024';-0.08;-0.08
'0:13.028';-0.075;-0.185
'0:13.032';-0.705;-0.215
'0:13.036';-0.74;-0.18
'0:13.040';-0.105;-0.195
'0:13.044';-0.075;-0.285
'0:13.048';-0.71;-0.32
'0:13.052';-0.76;-0.265
'0:13.056';-0.145;-0.265
'0:13.060';0.02;-0.33
'0:13.064';-0.595;-0.35
'0:13.068';-0.81;-0.31
'0:13.072';-0.21;-0.26
'0:13.076';0.07;-0.295
'0:13.080';-0.495;-0.335
'0:13.084';-0.86;-0.26
'0:13.088';-0.395;-0.255
'0:13.092';0.04;-0.295
'0:13.096';-0.35;-0.325
'0:13.100';-0.835;-0.235
'0:13.104';-0.445;-0.235
'0:13.108';0.105;-0.255
'0:13.112';-0.215;-0.295
'0:13.116';-0.77;-0.24
'0:13.120';-0.525;-0.2
'0:13.124';0.055;-0.24
'0:13.128';-0.2;-0.295
'0:13.132';-0.8;-0.25
'0:13.136';-0.605;-0.225
'0:13.140';0.02;-0.24
'0:13.144';-0.165;-0.285
'0:13.148';-0.785;-0.28
'0:13.152';-0.635;-0.205
'0:13.156';-0.02;-0.24
'0:13.160';-0.07;-0.31
'0:13.164';-0.725;-0.295
'0:13.168';-0.72;-0.215
'0:13.172';-0.105;-0.27
'0:13.176';-0.01;-0.32
'0:13.180';-0.635;-0.295
'0:13.184';-0.795;-0.28
'0:13.188';-0.215;-0.26
'0:13.192';0.11;-0.32
'0:13.196';-0.4;-0.32
'0:13.200';-0.88;-0.285
'0:13.204';-0.475;-0.255
'0:13.208';0.025;-0.305
'0:13.212';-0.28;-0.37
'0:13.216';-0.86;-0.3
'0:13.220';-0.565;-0.275
'0:13.224';0.05;-0.28
'0:13.228';-0.04;-0.335
'0:13.232';-0.69;-0.31
'0:13.236';-0.71;-0.255
'0:13.240';-0.055;-0.28
'0:13.244';-0.045;-0.34
'0:13.248';-0.675;-0.35
'0:13.252';-0.775;-0.26
'0:13.256';-0.14;-0.27
'0:13.260';0.025;-0.305
'0:13.264';-0.57;-0.35
'0:13.268';-0.755;-0.26
'0:13.272';-0.16;-0.245
'0:13.276';0.06;-0.335
'0:13.280';-0.515;-0.36
'0:13.284';-0.8;-0.305
'0:13.288';-0.29;-0.27
'0:13.292';0.085;-0.315
'0:13.296';-0.4;-0.34
'0:13.300';-0.82;-0.325
'0:13.304';-0.425;-0.24
'0:13.308';0.13;-0.29
'0:13.312';-0.22;-0.31
'0:13.316';-0.74;-0.25
'0:13.320';-0.455;-0.175
'0:13.324';0.165;-0.175
'0:13.328';0;-0.175
'0:13.332';-0.635;-0.105
'0:13.336';-0.51;-0.03
'0:13.340';0.16;-0.02
'0:13.344';0.2;-0.155
'0:13.348';-0.475;-0.165
'0:13.352';-0.625;-0.17
'0:13.356';-0.01;-0.175
'0:13.360';0.165;-0.325
'0:13.364';-0.425;-0.445
'0:13.368';-0.755;-0.445
'0:13.372';-0.205;-0.415
'0:13.376';0.14;-0.435
'0:13.380';-0.415;-0.435
'0:13.384';-0.79;-0.37
'0:13.388';-0.33;-0.385
'0:13.392';0.035;-0.44
'0:13.396';-0.44;-0.43
'0:13.400';-0.885;-0.365
'0:13.404';-0.45;-0.335
'0:13.408';0.035;-0.39
'0:13.412';-0.375;-0.48
'0:13.416';-0.87;-0.44
'0:13.420';-0.535;-0.4
'0:13.424';0;-0.445
'0:13.428';-0.33;-0.475
'0:13.432';-0.85;-0.425
'0:13.436';-0.595;-0.37
'0:13.440';-0.015;-0.41
'0:13.444';-0.275;-0.49
'0:13.448';-0.83;-0.4
'0:13.452';-0.625;-0.34
'0:13.456';-0.05;-0.34
'0:13.460';-0.245;-0.33
'0:13.464';-0.855;-0.075
'0:13.468';-0.67;0.155
'0:13.472';0.15;0.16
'0:13.476';0.525;0.045
'0:13.480';0.285;0.23
'0:13.484';0.5;0.485
'0:13.488';1.39;-0.07
'0:13.492';1.7;-0.87
'0:13.496';0.735;-1.43
'0:13.500';-0.315;-1.615
'0:13.504';-0.34;-1.93
'0:13.508';-0.32;-2.255
'0:13.512';-1;-2.53
'0:13.516';-1.435;-2.71
'0:13.520';-0.85;-2.395
'0:13.524';-0.21;-1.845
'0:13.528';-0.405;-1.355
'0:13.532';-0.795;-0.89
'0:13.536';-0.505;-0.47
'0:13.540';-0.015;-0.265
'0:13.544';-0.37;-0.295
'0:13.548';-0.865;-0.235
'0:13.552';-0.555;-0.135
'0:13.556';-0.025;-0.235
'0:13.560';-0.315;-0.26
'0:13.564';-0.84;-0.215
'0:13.568';-0.585;-0.17
'0:13.572';-0.02;-0.205
'0:13.576';-0.175;-0.29
'0:13.580';-0.765;-0.26
'0:13.584';-0.64;-0.18
'0:13.588';-0.045;-0.21
'0:13.592';-0.025;-0.27
'0:13.596';-0.67;-0.225
'0:13.600';-0.775;-0.2
'0:13.604';-0.155;-0.17
'0:13.608';0.02;-0.28
'0:13.612';-0.52;-0.245
'0:13.616';-0.825;-0.155
'0:13.620';-0.28;-0.16
'0:13.624';0.105;-0.19
'0:13.628';-0.315;-0.275
'0:13.632';-0.77;-0.15
'0:13.636';-0.385;-0.12
'0:13.640';0.135;-0.13
'0:13.644';-0.165;-0.195
'0:13.648';-0.72;-0.105
'0:13.652';-0.45;-0.05
'0:13.656';0.125;-0.08
'0:13.660';-0.1;-0.08
'0:13.664';-0.615;-0.03
'0:13.668';-0.42;0.055
'0:13.672';0.16;0.055
'0:13.676';0.005;0.01
'0:13.680';-0.535;0.035
'0:13.684';-0.35;0.145
'0:13.688';0.225;0.185
'0:13.692';0.16;0.15
'0:13.696';-0.45;0.155
'0:13.700';-0.395;0.265
'0:13.704';0.185;0.285
'0:13.708';0.255;0.235
'0:13.712';-0.36;0.255
'0:13.716';-0.475;0.31
'0:13.720';0.155;0.33
'0:13.724';0.345;0.24
'0:13.728';-0.175;0.27
'0:13.732';-0.495;0.315
'0:13.736';-0.005;0.37
'0:13.740';0.38;0.305
'0:13.744';-0.045;0.23
'0:13.748';-0.57;0.285
'0:13.752';-0.265;0.3
'0:13.756';0.22;0.215
'0:13.760';-0.06;0.12
'0:13.764';-0.655;0.13
'0:13.768';-0.525;0.125
'0:13.772';0.035;0.04
'0:13.776';-0.085;-0.075
'0:13.780';-0.72;-0.07
'0:13.784';-0.655;-0.025
'0:13.788';-0.08;-0.115
'0:13.792';-0.14;-0.2
'0:13.796';-0.725;-0.26
'0:13.800';-0.7;-0.2
'0:13.804';-0.095;-0.275
'0:13.808';-0.05;-0.345
'0:13.812';-0.665;-0.36
'0:13.816';-0.81;-0.345
'0:13.820';-0.225;-0.3
'0:13.824';-0.03;-0.375
'0:13.828';-0.615;-0.405
'0:13.832';-0.86;-0.335
'0:13.836';-0.305;-0.32
'0:13.840';0.05;-0.41
'0:13.844';-0.47;-0.41
'0:13.848';-0.87;-0.35
'0:13.852';-0.435;-0.335
'0:13.856';0.06;-0.37
'0:13.860';-0.29;-0.415
'0:13.864';-0.835;-0.345
'0:13.868';-0.56;-0.29
'0:13.872';0.02;-0.35
'0:13.876';-0.135;-0.41
'0:13.880';-0.76;-0.35
'0:13.884';-0.68;-0.31
'0:13.888';-0.06;-0.36
'0:13.892';-0.095;-0.35
'0:13.896';-0.74;-0.35
'0:13.900';-0.725;-0.285
'0:13.904';-0.105;-0.31
'0:13.908';-0.045;-0.395
'0:13.912';-0.67;-0.36
'0:13.916';-0.745;-0.275
'0:13.920';-0.14;-0.285
'0:13.924';-0.03;-0.34
'0:13.928';-0.62;-0.385
'0:13.932';-0.735;-0.315
'0:13.936';-0.145;-0.315
'0:13.940';-0.02;-0.34
'0:13.944';-0.62;-0.365
'0:13.948';-0.825;-0.305
'0:13.952';-0.26;-0.305
'0:13.956';-0.02;-0.405
'0:13.960';-0.545;-0.41
'0:13.964';-0.86;-0.365
'0:13.968';-0.33;-0.32
'0:13.972';0.06;-0.385
'0:13.976';-0.39;-0.4
'0:13.980';-0.855;-0.335
'0:13.984';-0.47;-0.315
'0:13.988';0.005;-0.36
'0:13.992';-0.32;-0.4
'0:13.996';-0.855;-0.375
'0:14.000';-0.595;-0.315
'0:14.004';-0.005;-0.36
'0:14.008';-0.16;-0.445
'0:14.012';-0.745;-0.405
'0:14.016';-0.695;-0.345
'0:14.020';-0.07;-0.37
'0:14.024';-0.12;-0.43
'0:14.028';-0.76;-0.44
'0:14.032';-0.835;-0.335
'0:14.036';-0.16;-0.34
'0:14.040';-0.02;-0.43
'0:14.044';-0.58;-0.445
'0:14.048';-0.76;-0.375
'0:14.052';-0.195;-0.345
'0:14.056';-0.04;-0.43
'0:14.060';-0.635;-0.41
'0:14.064';-0.825;-0.38
'0:14.068';-0.285;-0.355
'0:14.072';-0.035;-0.435
'0:14.076';-0.555;-0.415
'0:14.080';-0.765;-0.36
'0:14.084';-0.18;-0.305
'0:14.088';0.14;-0.375
'0:14.092';-0.42;-0.395
'0:14.096';-0.76;-0.28
'0:14.100';-0.235;-0.17
'0:14.104';0.16;-0.18
'0:14.108';-0.34;-0.215
'0:14.112';-0.73;-0.12
'0:14.116';-0.245;-0.055
'0:14.120';0.265;-0.125
'0:14.124';-0.08;-0.28
'0:14.128';-0.675;-0.265
'0:14.132';-0.445;-0.235
'0:14.136';0.065;-0.355
'0:14.140';-0.09;-0.485
'0:14.144';-0.725;-0.51
'0:14.148';-0.67;-0.43
'0:14.152';-0.02;-0.44
'0:14.156';0.04;-0.485
'0:14.160';-0.635;-0.47
'0:14.164';-0.83;-0.4
'0:14.168';-0.265;-0.41
'0:14.172';-0.105;-0.46
'0:14.176';-0.665;-0.46
'0:14.180';-0.955;-0.42
'0:14.184';-0.385;-0.41
'0:14.188';-0.05;-0.485
'0:14.192';-0.59;-0.5
'0:14.196';-0.885;-0.42
'0:14.200';-0.355;-0.415
'0:14.204';-0.005;-0.475
'0:14.208';-0.515;-0.49
'0:14.212';-0.885;-0.435
'0:14.216';-0.41;-0.415
'0:14.220';0;-0.45
'0:14.224';-0.47;-0.455
'0:14.228';-0.895;-0.415
'0:14.232';-0.505;-0.36
'0:14.236';-0.1;-0.35
'0:14.240';-0.51;-0.195
'0:14.244';-0.875;0.085
'0:14.248';-0.345;0.165
'0:14.252';0.485;0.065
'0:14.256';0.685;0.095
'0:14.260';0.455;0.48
'0:14.264';0.875;0.105
'0:14.268';1.615;-0.64
'0:14.272';1.36;-1.3
'0:14.276';0.025;-1.525
'0:14.280';-0.77;-1.73
'0:14.284';-0.575;-2.02
'0:14.288';-0.62;-2.215
'0:14.292';-1.17;-2.625
'0:14.296';-1.385;-2.61
'0:14.300';-0.715;-2.07
'0:14.304';-0.12;-1.545
'0:14.308';-0.425;-1.16
'0:14.312';-0.85;-0.68
'0:14.316';-0.48;-0.29
'0:14.320';0.03;-0.235
'0:14.324';-0.33;-0.28
'0:14.328';-0.845;-0.195
'0:14.332';-0.545;-0.15
'0:14.336';0;-0.215
'0:14.340';-0.28;-0.25
'0:14.344';-0.855;-0.185
'0:14.348';-0.6;-0.155
'0:14.352';0;-0.205
'0:14.356';-0.17;-0.245
'0:14.360';-0.79;-0.2
'0:14.364';-0.7;-0.15
'0:14.368';-0.04;-0.16
'0:14.372';-0.045;-0.23
'0:14.376';-0.68;-0.21
'0:14.380';-0.795;-0.145
'0:14.384';-0.18;-0.14
'0:14.388';0.1;-0.175
'0:14.392';-0.445;-0.2
'0:14.396';-0.81;-0.12
'0:14.400';-0.28;-0.09
'0:14.404';0.1;-0.155
'0:14.408';-0.3;-0.16
'0:14.412';-0.8;-0.12
'0:14.416';-0.455;-0.055
'0:14.420';0.09;-0.09
'0:14.424';-0.155;-0.115
'0:14.428';-0.72;-0.05
'0:14.432';-0.495;0.035
'0:14.436';0.12;-0.02
'0:14.440';-0.015;-0.055
'0:14.444';-0.58;-0.015
'0:14.448';-0.465;0.06
'0:14.452';0.145;0.085
'0:14.456';-0.01;0.055
'0:14.460';-0.59;0.11
'0:14.464';-0.46;0.21
'0:14.468';0.18;0.185
'0:14.472';0.115;0.19
'0:14.476';-0.475;0.235
'0:14.480';-0.4;0.315
'0:14.484';0.225;0.325
'0:14.488';0.22;0.295
'0:14.492';-0.395;0.29
'0:14.496';-0.43;0.365
'0:14.500';0.155;0.39
'0:14.504';0.32;0.31
'0:14.508';-0.28;0.315
'0:14.512';-0.475;0.38
'0:14.516';0.065;0.4
'0:14.520';0.34;0.305
'0:14.524';-0.23;0.305
'0:14.528';-0.64;0.335
'0:14.532';-0.22;0.33
'0:14.536';0.2;0.23
'0:14.540';-0.21;0.175
'0:14.544';-0.79;0.19
'0:14.548';-0.42;0.195
'0:14.552';0.105;0.095
'0:14.556';-0.21;-0.015
'0:14.560';-0.765;-0.025
'0:14.564';-0.545;-0.04
'0:14.568';0.04;-0.11
'0:14.572';-0.215;-0.16
'0:14.576';-0.84;-0.16
'0:14.580';-0.635;-0.15
'0:14.584';-0.015;-0.18
'0:14.588';-0.155;-0.26
'0:14.592';-0.77;-0.295
'0:14.596';-0.675;-0.21
'0:14.600';-0.04;-0.24
'0:14.604';-0.06;-0.325
'0:14.608';-0.705;-0.315
'0:14.612';-0.765;-0.215
'0:14.616';-0.14;-0.225
'0:14.620';0.01;-0.305
'0:14.624';-0.62;-0.315
'0:14.628';-0.81;-0.235
'0:14.632';-0.155;-0.21
'0:14.636';0.075;-0.295
'0:14.640';-0.47;-0.27
'0:14.644';-0.83;-0.245
'0:14.648';-0.33;-0.195
'0:14.652';0.095;-0.28
'0:14.656';-0.335;-0.3
'0:14.660';-0.835;-0.26
'0:14.664';-0.47;-0.185
'0:14.668';0.08;-0.235
'0:14.672';-0.18;-0.31
'0:14.676';-0.77;-0.245
'0:14.680';-0.535;-0.19
'0:14.684';0.04;-0.245
'0:14.688';-0.07;-0.29
'0:14.692';-0.72;-0.265
'0:14.696';-0.715;-0.195
'0:14.700';-0.065;-0.24
'0:14.704';-0.04;-0.29
'0:14.708';-0.64;-0.295
'0:14.712';-0.75;-0.2
'0:14.716';-0.13;-0.21
'0:14.720';0.065;-0.26
'0:14.724';-0.565;-0.3
'0:14.728';-0.785;-0.21
'0:14.732';-0.215;-0.225
'0:14.736';0.065;-0.295
'0:14.740';-0.49;-0.3
'0:14.744';-0.825;-0.275
'0:14.748';-0.345;-0.22
'0:14.752';0.075;-0.315
'0:14.756';-0.375;-0.34
'0:14.760';-0.855;-0.285
'0:14.764';-0.41;-0.24
'0:14.768';0.075;-0.28
'0:14.772';-0.28;-0.355
'0:14.776';-0.83;-0.275
'0:14.780';-0.575;-0.25
'0:14.784';0.01;-0.265
'0:14.788';-0.105;-0.34
'0:14.792';-0.74;-0.3
'0:14.796';-0.735;-0.28
'0:14.800';-0.08;-0.285
'0:14.804';0.01;-0.37
'0:14.808';-0.625;-0.38
'0:14.812';-0.845;-0.26
'0:14.816';-0.295;-0.265
'0:14.820';0.035;-0.31
'0:14.824';-0.46;-0.345
'0:14.828';-0.88;-0.29
'0:14.832';-0.435;-0.245
'0:14.836';0.06;-0.3
'0:14.840';-0.285;-0.34
'0:14.844';-0.815;-0.325
'0:14.848';-0.52;-0.24
'0:14.852';0.035;-0.3
'0:14.856';-0.22;-0.34
'0:14.860';-0.81;-0.305
'0:14.864';-0.605;-0.22
'0:14.868';0.04;-0.255
'0:14.872';-0.06;-0.295
'0:14.876';-0.68;-0.27
'0:14.880';-0.6;-0.12
'0:14.884';0.08;-0.1
'0:14.888';0.085;-0.15
'0:14.892';-0.59;-0.125
'0:14.896';-0.605;-0.05
'0:14.900';0.065;-0.015
'0:14.904';0.215;-0.16
'0:14.908';-0.405;-0.185
'0:14.912';-0.705;-0.19
'0:14.916';-0.185;-0.22
'0:14.920';0.15;-0.335
'0:14.924';-0.345;-0.45
'0:14.928';-0.825;-0.43
'0:14.932';-0.435;-0.375
'0:14.936';0.085;-0.38
'0:14.940';-0.19;-0.435
'0:14.944';-0.805;-0.38
'0:14.948';-0.63;-0.325
'0:14.952';-0.055;-0.42
'0:14.956';-0.22;-0.39
'0:14.960';-0.855;-0.38
'0:14.964';-0.755;-0.345
'0:14.968';-0.16;-0.36
'0:14.972';-0.205;-0.435
'0:14.976';-0.835;-0.44
'0:14.980';-0.79;-0.375
'0:14.984';-0.15;-0.36
'0:14.988';-0.16;-0.415
'0:14.992';-0.805;-0.42
'0:14.996';-0.81;-0.355
'0:15.000';-0.175;-0.37
'0:15.004';-0.08;-0.42
'0:15.008';-0.725;-0.405
'0:15.012';-0.81;-0.335
'0:15.016';-0.25;-0.285
'0:15.020';-0.17;-0.26
'0:15.024';-0.795;-0.065
'0:15.028';-0.875;0.185
'0:15.032';-0.05;0.205
'0:15.036';0.575;0.125
'0:15.040';0.495;0.31
'0:15.044';0.425;0.405
'0:15.048';1.12;-0.32
'0:15.052';1.715;-1.105
'0:15.056';1.04;-1.66
'0:15.060';-0.295;-1.815
'0:15.064';-0.68;-2.09
'0:15.068';-0.52;-2.36
'0:15.072';-0.85;-2.63
'0:15.076';-1.375;-2.81
'0:15.080';-1.13;-2.535
'0:15.084';-0.31;-1.78
'0:15.088';-0.12;-1.23
'0:15.092';-0.68;-0.795
'0:15.096';-0.83;-0.355
'0:15.100';-0.245;-0.205
'0:15.104';-0.1;-0.18
'0:15.108';-0.675;-0.2
'0:15.112';-0.89;-0.095
'0:15.116';-0.32;-0.105
'0:15.120';0.005;-0.19
'0:15.124';-0.55;-0.225
'0:15.128';-0.895;-0.14
'0:15.132';-0.38;-0.12
'0:15.136';0.03;-0.19
'0:15.140';-0.43;-0.185
'0:15.144';-0.92;-0.14
'0:15.148';-0.515;-0.115
'0:15.152';0.025;-0.16
'0:15.156';-0.225;-0.165
'0:15.160';-0.845;-0.115
'0:15.164';-0.675;-0.09
'0:15.168';-0.02;-0.11
'0:15.172';-0.09;-0.19
'0:15.176';-0.725;-0.15
'0:15.180';-0.765;-0.04
'0:15.184';-0.115;-0.045
'0:15.188';0.04;-0.09
'0:15.192';-0.575;-0.115
'0:15.196';-0.785;-0.005
'0:15.200';-0.17;0
'0:15.204';0.105;-0.015
'0:15.208';-0.44;-0.02
'0:15.212';-0.795;0.05
'0:15.216';-0.245;0.085
'0:15.220';0.145;0.06
'0:15.224';-0.33;0.035
'0:15.228';-0.75;0.115
'0:15.232';-0.31;0.21
'0:15.236';0.22;0.175
'0:15.240';-0.105;0.16
'0:15.244';-0.625;0.23
'0:15.248';-0.295;0.335
'0:15.252';0.29;0.305
'0:15.256';0.015;0.32
'0:15.260';-0.55;0.37
'0:15.264';-0.29;0.44
'0:15.268';0.295;0.435
'0:15.272';0.155;0.41
'0:15.276';-0.46;0.44
'0:15.280';-0.295;0.51
'0:15.284';0.325;0.495
'0:15.288';0.255;0.405
'0:15.292';-0.42;0.45
'0:15.296';-0.42;0.505
'0:15.300';0.22;0.495
'0:15.304';0.285;0.425
'0:15.308';-0.34;0.395
'0:15.312';-0.565;0.445
'0:15.316';0.015;0.415
'0:15.320';0.24;0.335
'0:15.324';-0.32;0.26
'0:15.328';-0.76;0.295
'0:15.332';-0.235;0.24
'0:15.336';0.14;0.13
'0:15.340';-0.305;0.04
'0:15.344';-0.795;0.055
'0:15.348';-0.425;0.065
'0:15.352';0.085;-0.025
'0:15.356';-0.245;-0.125
'0:15.360';-0.825;-0.14
'0:15.364';-0.54;-0.105
'0:15.368';0.055;-0.155
'0:15.372';-0.17;-0.21
'0:15.376';-0.8;-0.205
'0:15.380';-0.6;-0.155
'0:15.384';0.025;-0.195
'0:15.388';-0.11;-0.29
'0:15.392';-0.74;-0.255
'0:15.396';-0.625;-0.215
'0:15.400';0.005;-0.205
'0:15.404';-0.035;-0.305
'0:15.408';-0.69;-0.26
'0:15.412';-0.65;-0.225
'0:15.416';-0.02;-0.2
'0:15.420';0;-0.25
'0:15.424';-0.645;-0.235
'0:15.428';-0.665;-0.195
'0:15.432';-0.025;-0.2
'0:15.436';0.065;-0.23
'0:15.440';-0.58;-0.225
'0:15.444';-0.77;-0.165
'0:15.448';-0.18;-0.13
'0:15.452';0.13;-0.2
'0:15.456';-0.43;-0.24
'0:15.460';-0.8;-0.13
'0:15.464';-0.29;-0.13
'0:15.468';0.105;-0.215
'0:15.472';-0.39;-0.26
'0:15.476';-0.785;-0.2
'0:15.480';-0.33;-0.16
'0:15.484';0.09;-0.2
'0:15.488';-0.295;-0.22
'0:15.492';-0.79;-0.21
'0:15.496';-0.395;-0.145
'0:15.500';0.09;-0.2
'0:15.504';-0.285;-0.245
'0:15.508';-0.8;-0.225
'0:15.512';-0.46;-0.155
'0:15.516';0.085;-0.23
'0:15.520';-0.27;-0.275
'0:15.524';-0.795;-0.23
'0:15.528';-0.44;-0.175
'0:15.532';0.1;-0.235
'0:15.536';-0.225;-0.275
'0:15.540';-0.78;-0.245
'0:15.544';-0.5;-0.185
'0:15.548';0.08;-0.24
'0:15.552';-0.18;-0.28
'0:15.556';-0.78;-0.27
'0:15.560';-0.615;-0.21
'0:15.564';-0.015;-0.25
'0:15.568';-0.055;-0.305
'0:15.572';-0.715;-0.285
'0:15.576';-0.69;-0.205
'0:15.580';-0.045;-0.22
'0:15.584';0.015;-0.305
'0:15.588';-0.63;-0.325
'0:15.592';-0.77;-0.24
'0:15.596';-0.15;-0.255
'0:15.600';0.055;-0.305
'0:15.604';-0.535;-0.33
'0:15.608';-0.815;-0.235
'0:15.612';-0.215;-0.21
'0:15.616';0.075;-0.295
'0:15.620';-0.475;-0.31
'0:15.624';-0.79;-0.27
'0:15.628';-0.24;-0.21
'0:15.632';0.09;-0.305
'0:15.636';-0.47;-0.32
'0:15.640';-0.74;-0.26
'0:15.644';-0.155;-0.19
'0:15.648';0.14;-0.235
'0:15.652';-0.39;-0.225
'0:15.656';-0.695;-0.13
'0:15.660';-0.14;-0.03
'0:15.664';0.195;-0.085
'0:15.668';-0.29;-0.035
'0:15.672';-0.62;0.02
'0:15.676';-0.115;0
'0:15.680';0.285;-0.105
'0:15.684';-0.185;-0.21
'0:15.688';-0.725;-0.21
'0:15.692';-0.375;-0.235
'0:15.696';0.165;-0.375
'0:15.700';-0.11;-0.515
'0:15.704';-0.735;-0.405
'0:15.708';-0.545;-0.33
'0:15.712';0.05;-0.36
'0:15.716';-0.115;-0.4
'0:15.720';-0.785;-0.4
'0:15.724';-0.75;-0.355
'0:15.728';-0.095;-0.32
'0:15.732';-0.095;-0.365
'0:15.736';-0.755;-0.405
'0:15.740';-0.785;-0.32
'0:15.744';-0.15;-0.345
'0:15.748';-0.125;-0.415
'0:15.752';-0.745;-0.475
'0:15.756';-0.78;-0.385
'0:15.760';-0.125;-0.37
'0:15.764';-0.105;-0.425
'0:15.768';-0.715;-0.435
'0:15.772';-0.78;-0.4
'0:15.776';-0.155;-0.405
'0:15.780';-0.04;-0.44
'0:15.784';-0.725;-0.425
'0:15.788';-0.88;-0.36
'0:15.792';-0.305;-0.245
'0:15.796';-0.11;-0.105
'0:15.800';-0.585;0.105
'0:15.804';-0.545;0.15
'0:15.808';0.36;0.19
'0:15.812';1.005;0.375
'0:15.816';0.865;0.15
'0:15.820';0.81;-0.605
'0:15.824';1.355;-1.275
'0:15.828';1.17;-1.7
'0:15.832';-0.02;-2.04
'0:15.836';-1.005;-2.435
'0:15.840';-1.08;-2.62
'0:15.844';-0.61;-2.6
'0:15.848';-0.71;-2.775
'0:15.852';-1.235;-2.425
'0:15.856';-0.79;-1.565
'0:15.860';-0.015;-1.075
'0:15.864';-0.255;-0.71
'0:15.868';-0.905;-0.365
'0:15.872';-0.705;-0.175
'0:15.876';-0.065;-0.215
'0:15.880';-0.22;-0.25
'0:15.884';-0.84;-0.225
'0:15.888';-0.68;-0.175
'0:15.892';-0.055;-0.21
'0:15.896';-0.17;-0.265
'0:15.900';-0.83;-0.255
'0:15.904';-0.695;-0.16
'0:15.908';-0.09;-0.16
'0:15.912';-0.15;-0.24
'0:15.916';-0.78;-0.225
'0:15.920';-0.705;-0.155
'0:15.924';-0.06;-0.175
'0:15.928';-0.11;-0.245
'0:15.932';-0.72;-0.225
'0:15.936';-0.65;-0.14
'0:15.940';-0.035;-0.125
'0:15.944';-0.05;-0.195
'0:15.948';-0.695;-0.155
'0:15.952';-0.8;-0.1
'0:15.956';-0.155;-0.105
'0:15.960';0;-0.125
'0:15.964';-0.595;-0.14
'0:15.968';-0.745;-0.03
'0:15.972';-0.1;-0.03
'0:15.976';0.1;-0.095
'0:15.980';-0.505;-0.09
'0:15.984';-0.72;0
'0:15.988';-0.15;0.035
'0:15.992';0.155;0.005
'0:15.996';-0.38;0.005
'0:16.000';-0.735;0.075
'0:16.004';-0.15;0.14
'0:16.008';0.25;0.09
'0:16.012';-0.22;0.11
'0:16.016';-0.59;0.205
'0:16.020';-0.13;0.28
'0:16.024';0.285;0.215
'0:16.028';-0.17;0.195
'0:16.032';-0.555;0.3
'0:16.036';-0.04;0.335
'0:16.040';0.365;0.32
'0:16.044';-0.14;0.275
'0:16.048';-0.465;0.365
'0:16.052';0.05;0.365
'0:16.056';0.375;0.36
'0:16.060';-0.175;0.32
'0:16.064';-0.54;0.38
'0:16.068';-0.015;0.405
'0:16.072';0.275;0.32
'0:16.076';-0.24;0.29
'0:16.080';-0.58;0.315
'0:16.084';-0.06;0.29
'0:16.088';0.2;0.23
'0:16.092';-0.325;0.135
'0:16.096';-0.745;0.18
'0:16.100';-0.3;0.135
'0:16.104';0.12;0.045
'0:16.108';-0.38;-0.06
'0:16.112';-0.85;-0.055
'0:16.116';-0.43;-0.045
'0:16.120';0.075;-0.11
'0:16.124';-0.31;-0.215
'0:16.128';-0.84;-0.18
'0:16.132';-0.48;-0.155
'0:16.136';0.045;-0.235
'0:16.140';-0.32;-0.31
'0:16.144';-0.795;-0.28
'0:16.148';-0.47;-0.245
'0:16.152';0.04;-0.295
'0:16.156';-0.3;-0.305
'0:16.160';-0.81;-0.285
'0:16.164';-0.41;-0.265
'0:16.168';0.05;-0.34
'0:16.172';-0.355;-0.36
'0:16.176';-0.825;-0.295
'0:16.180';-0.405;-0.25
'0:16.184';0.085;-0.255
'0:16.188';-0.335;-0.32
'0:16.192';-0.87;-0.275
'0:16.196';-0.455;-0.265
'0:16.200';0.075;-0.255
'0:16.204';-0.275;-0.33
'0:16.208';-0.8;-0.27
'0:16.212';-0.505;-0.21
'0:16.216';0.09;-0.265
'0:16.220';-0.155;-0.31
'0:16.224';-0.785;-0.29
'0:16.228';-0.64;-0.195
'0:16.232';0.02;-0.235
'0:16.236';-0.06;-0.33
'0:16.240';-0.705;-0.265
'0:16.244';-0.67;-0.22
'0:16.248';-0.09;-0.24
'0:16.252';-0.075;-0.295
'0:16.256';-0.7;-0.29
'0:16.260';-0.72;-0.225
'0:16.264';-0.085;-0.22
'0:16.268';-0.01;-0.31
'0:16.272';-0.64;-0.295
'0:16.276';-0.69;-0.25
'0:16.280';-0.045;-0.23
'0:16.284';-0.015;-0.34
'0:16.288';-0.675;-0.295
'0:16.292';-0.725;-0.25
'0:16.296';-0.08;-0.27
'0:16.300';-0.03;-0.325
'0:16.304';-0.665;-0.27
'0:16.308';-0.715;-0.23
'0:16.312';-0.07;-0.24
'0:16.316';0.04;-0.32
'0:16.320';-0.6;-0.31
'0:16.324';-0.76;-0.245
'0:16.328';-0.16;-0.255
'0:16.332';0.07;-0.32
'0:16.336';-0.55;-0.355
'0:16.340';-0.82;-0.245
'0:16.344';-0.27;-0.25
'0:16.348';0.1;-0.27
'0:16.352';-0.4;-0.35
'0:16.356';-0.83;-0.265
'0:16.360';-0.345;-0.255
'0:16.364';0.145;-0.3
'0:16.368';-0.255;-0.31
'0:16.372';-0.8;-0.285
'0:16.376';-0.465;-0.25
'0:16.380';0.095;-0.295
'0:16.384';-0.225;-0.33
'0:16.388';-0.75;-0.315
'0:16.392';-0.445;-0.225
'0:16.396';0.095;-0.27
'0:16.400';-0.195;-0.31
'0:16.404';-0.75;-0.245
'0:16.408';-0.415;-0.2
'0:16.412';0.155;-0.265
'0:16.416';-0.14;-0.22
'0:16.420';-0.695;-0.135
'0:16.424';-0.34;-0.035
'0:16.428';0.185;-0.095
'0:16.432';-0.05;-0.08
'0:16.436';-0.575;-0.045
'0:16.440';-0.275;-0.08
'0:16.444';0.235;-0.17
'0:16.448';-0.075;-0.265
'0:16.452';-0.7;-0.28
'0:16.456';-0.43;-0.345
'0:16.460';0.12;-0.435
'0:16.464';-0.14;-0.495
'0:16.468';-0.745;-0.395
'0:16.472';-0.515;-0.345
'0:16.476';0.065;-0.395
'0:16.480';-0.135;-0.44
'0:16.484';-0.795;-0.4
'0:16.488';-0.69;-0.3
'0:16.492';-0.075;-0.315
'0:16.496';-0.145;-0.385
'0:16.500';-0.79;-0.435
'0:16.504';-0.76;-0.35
'0:16.508';-0.12;-0.38
'0:16.512';-0.11;-0.435
'0:16.516';-0.75;-0.42
'0:16.520';-0.76;-0.38
'0:16.524';-0.075;-0.38
'0:16.528';-0.065;-0.435
'0:16.532';-0.695;-0.415
'0:16.536';-0.74;-0.365
'0:16.540';-0.11;-0.33
'0:16.544';-0.055;-0.405
'0:16.548';-0.725;-0.405
'0:16.552';-0.85;-0.295
'0:16.556';-0.22;-0.05
'0:16.560';-0.04;0.07
'0:16.564';-0.42;0.16
'0:16.568';-0.105;0.15
'0:16.572';0.93;0.29
'0:16.576';1.3;0.42
'0:16.580';0.975;-0.2
'0:16.584';0.965;-0.875
'0:16.588';0.87;-1.33
'0:16.592';0.135;-1.62
'0:16.596';-0.955;-2.015
'0:16.600';-1.375;-2.225
'0:16.604';-0.755;-2.315
'0:16.608';-0.425;-2.435
'0:16.612';-0.94;-2.25
'0:16.616';-0.965;-1.625
'0:16.620';-0.115;-1.135
'0:16.624';0.08;-0.76
'0:16.628';-0.595;-0.435
'0:16.632';-0.82;-0.235
'0:16.636';-0.205;-0.185
'0:16.640';0.025;-0.25
'0:16.644';-0.565;-0.26
'0:16.648';-0.835;-0.215
'0:16.652';-0.28;-0.2
'0:16.656';0.06;-0.245
'0:16.660';-0.48;-0.26
'0:16.664';-0.795;-0.185
'0:16.668';-0.295;-0.16
'0:16.672';0.05;-0.24
'0:16.676';-0.465;-0.245
'0:16.680';-0.84;-0.2
'0:16.684';-0.285;-0.155
'0:16.688';0.11;-0.23
'0:16.692';-0.43;-0.25
'0:16.696';-0.785;-0.18
'0:16.700';-0.29;-0.15
'0:16.704';0.12;-0.19
'0:16.708';-0.375;-0.23
'0:16.712';-0.78;-0.16
'0:16.716';-0.27;-0.115
'0:16.720';0.16;-0.14
'0:16.724';-0.225;-0.19
'0:16.728';-0.77;-0.09
'0:16.732';-0.455;-0.06
'0:16.736';0.16;-0.105
'0:16.740';-0.03;-0.135
'0:16.744';-0.645;-0.07
'0:16.748';-0.495;0.005
'0:16.752';0.155;-0.035
'0:16.756';0.085;-0.02
'0:16.760';-0.55;-0.01
'0:16.764';-0.56;0.07
'0:16.768';0.08;0.115
'0:16.772';0.26;0.08
'0:16.776';-0.365;0.09
'0:16.780';-0.535;0.18
'0:16.784';0.055;0.225
'0:16.788';0.325;0.175
'0:16.792';-0.24;0.19
'0:16.796';-0.515;0.295
'0:16.800';0.045;0.325
'0:16.804';0.335;0.27
'0:16.808';-0.24;0.26
'0:16.812';-0.485;0.31
'0:16.816';0.115;0.35
'0:16.820';0.395;0.315
'0:16.824';-0.15;0.255
'0:16.828';-0.485;0.285
'0:16.832';0.075;0.3
'0:16.836';0.315;0.25
'0:16.840';-0.255;0.18
'0:16.844';-0.63;0.215
'0:16.848';-0.18;0.155
'0:16.852';0.22;0.095
'0:16.856';-0.285;0
'0:16.860';-0.79;0.02
'0:16.864';-0.42;0.02
'0:16.868';0.095;-0.065
'0:16.872';-0.26;-0.145
'0:16.876';-0.815;-0.18
'0:16.880';-0.57;-0.11
'0:16.884';0.05;-0.21
'0:16.888';-0.135;-0.305
'0:16.892';-0.745;-0.295
'0:16.896';-0.625;-0.255
'0:16.900';-0.02;-0.29
'0:16.904';-0.085;-0.355
'0:16.908';-0.745;-0.35
'0:16.912';-0.68;-0.275
'0:16.916';-0.04;-0.31
'0:16.920';-0.105;-0.37
'0:16.924';-0.77;-0.32
'0:16.928';-0.655;-0.295
'0:16.932';-0.035;-0.285
'0:16.936';-0.125;-0.365
'0:16.940';-0.745;-0.33
'0:16.944';-0.64;-0.275
'0:16.948';0;-0.245
'0:16.952';-0.025;-0.34
'0:16.956';-0.66;-0.31
'0:16.960';-0.69;-0.245
'0:16.964';-0.04;-0.255
'0:16.968';-0.005;-0.3
'0:16.972';-0.67;-0.32
'0:16.976';-0.72;-0.21
'0:16.980';-0.095;-0.285
'0:16.984';0.075;-0.33
'0:16.988';-0.585;-0.34
'0:16.992';-0.8;-0.26
'0:16.996';-0.205;-0.26
'0:17.000';0.075;-0.305
'0:17.004';-0.45;-0.34
'0:17.008';-0.795;-0.29
'0:17.012';-0.265;-0.245
'0:17.016';0.14;-0.33
'0:17.020';-0.39;-0.335
'0:17.024';-0.795;-0.29
'0:17.028';-0.315;-0.225
'0:17.032';0.09;-0.335
'0:17.036';-0.375;-0.36
'0:17.040';-0.855;-0.295
'0:17.044';-0.385;-0.23
'0:17.048';0.115;-0.3
'0:17.052';-0.34;-0.355
'0:17.056';-0.82;-0.285
'0:17.060';-0.37;-0.26
'0:17.064';0.08;-0.315
'0:17.068';-0.345;-0.355
'0:17.072';-0.805;-0.33
'0:17.076';-0.38;-0.265
'0:17.080';0.07;-0.35
'0:17.084';-0.385;-0.365
'0:17.088';-0.82;-0.31
'0:17.092';-0.4;-0.305
'0:17.096';0.105;-0.34
'0:17.100';-0.285;-0.4
'0:17.104';-0.795;-0.335
'0:17.108';-0.47;-0.255
'0:17.112';0.095;-0.32
'0:17.116';-0.155;-0.39
'0:17.120';-0.78;-0.355
'0:17.124';-0.595;-0.275
'0:17.128';0.035;-0.305
'0:17.132';-0.14;-0.34
'0:17.136';-0.775;-0.345
'0:17.140';-0.685;-0.26
'0:17.144';-0.02;-0.315
'0:17.148';-0.06;-0.37
'0:17.152';-0.68;-0.355
'0:17.156';-0.73;-0.265
'0:17.160';-0.055;-0.29
'0:17.164';0.065;-0.34
'0:17.168';-0.535;-0.31
'0:17.172';-0.665;-0.255
'0:17.176';-0.04;-0.2
'0:17.180';0.185;-0.2
'0:17.184';-0.435;-0.165
'0:17.188';-0.66;-0.095
'0:17.192';-0.09;-0.04
'0:17.196';0.28;-0.045
'0:17.200';-0.265;-0.11
'0:17.204';-0.655;-0.095
'0:17.208';-0.15;-0.13
'0:17.212';0.165;-0.255
'0:17.216';-0.365;-0.32
'0:17.220';-0.8;-0.34
'0:17.224';-0.335;-0.395
'0:17.228';0.155;-0.42
'0:17.232';-0.245;-0.445
'0:17.236';-0.795;-0.385
'0:17.240';-0.43;-0.33
'0:17.244';0.08;-0.36
'0:17.248';-0.24;-0.435
'0:17.252';-0.875;-0.37
'0:17.256';-0.67;-0.275
'0:17.260';-0.05;-0.32
'0:17.264';-0.155;-0.415
'0:17.268';-0.805;-0.425
'0:17.272';-0.77;-0.36
'0:17.276';-0.1;-0.38
'0:17.280';-0.03;-0.42
'0:17.284';-0.63;-0.44
'0:17.288';-0.805;-0.385
'0:17.292';-0.205;-0.35
'0:17.296';0.055;-0.42
'0:17.300';-0.52;-0.43
'0:17.304';-0.815;-0.35
'0:17.308';-0.3;-0.315
'0:17.312';0.04;-0.385
'0:17.316';-0.545;-0.35
'0:17.320';-0.97;-0.135
'0:17.324';-0.345;0.165
'0:17.328';0.29;0.15
'0:17.332';0.12;0.07
'0:17.336';0.07;0.2
'0:17.340';0.91;0.515
'0:17.344';1.72;0
'0:17.348';1.42;-0.8
'0:17.352';0.555;-1.34
'0:17.356';0.12;-1.54
'0:17.360';0.09;-1.88
'0:17.364';-0.635;-2.205
'0:17.368';-1.53;-2.465
'0:17.372';-1.215;-2.525
'0:17.376';-0.25;-2.365
'0:17.380';-0.25;-1.935
'0:17.384';-0.79;-1.405
'0:17.388';-0.66;-0.86
'0:17.392';0;-0.505
'0:17.396';0.1;-0.255
'0:17.400';-0.555;-0.21
'0:17.404';-0.855;-0.165
'0:17.408';-0.26;-0.09
'0:17.412';0.1;-0.145
'0:17.416';-0.445;-0.18
'0:17.420';-0.805;-0.11
'0:17.424';-0.34;-0.08
'0:17.428';0.145;-0.13
'0:17.432';-0.28;-0.175
'0:17.436';-0.775;-0.14
'0:17.440';-0.395;-0.045
'0:17.444';0.145;-0.145
'0:17.448';-0.195;-0.155
'0:17.452';-0.775;-0.15
'0:17.456';-0.51;-0.095
'0:17.460';0.09;-0.095
'0:17.464';-0.095;-0.145
'0:17.468';-0.685;-0.095
'0:17.472';-0.485;-0.075
'0:17.476';0.145;-0.05
'0:17.480';-0.035;-0.12
'0:17.484';-0.68;-0.08
'0:17.488';-0.6;0
'0:17.492';0.05;-0.01
'0:17.496';0.115;-0.08
'0:17.500';-0.525;-0.08
'0:17.504';-0.655;0.015
'0:17.508';-0.02;0.025
'0:17.512';0.24;-0.005
'0:17.516';-0.275;-0.01
'0:17.520';-0.64;0.04
'0:17.524';-0.14;0.125
'0:17.528';0.305;0.08
'0:17.532';-0.135;0.1
'0:17.536';-0.595;0.16
'0:17.540';-0.195;0.27
'0:17.544';0.355;0.23
'0:17.548';0.025;0.215
'0:17.552';-0.49;0.29
'0:17.556';-0.175;0.39
'0:17.560';0.415;0.35
'0:17.564';0.175;0.315
'0:17.568';-0.415;0.365
'0:17.572';-0.175;0.45
'0:17.576';0.415;0.445
'0:17.580';0.19;0.37
'0:17.584';-0.36;0.435
'0:17.588';-0.135;0.49
'0:17.592';0.44;0.485
'0:17.596';0.16;0.4
'0:17.600';-0.435;0.435
'0:17.604';-0.22;0.455
'0:17.608';0.32;0.395
'0:17.612';0.075;0.295
'0:17.616';-0.56;0.285
'0:17.620';-0.4;0.315
'0:17.624';0.21;0.24
'0:17.628';0.085;0.12
'0:17.632';-0.575;0.035
'0:17.636';-0.525;0.105
'0:17.640';0.075;0.045
'0:17.644';0.08;-0.07
'0:17.648';-0.605;-0.08
'0:17.652';-0.695;-0.08
'0:17.656';-0.08;-0.09
'0:17.660';0.125;-0.195
'0:17.664';-0.49;-0.215
'0:17.668';-0.705;-0.19
'0:17.672';-0.13;-0.165
'0:17.676';0.16;-0.265
'0:17.680';-0.395;-0.26
'0:17.684';-0.75;-0.235
'0:17.688';-0.23;-0.185
'0:17.692';0.14;-0.255
'0:17.696';-0.355;-0.26
'0:17.700';-0.725;-0.24
'0:17.704';-0.26;-0.21
'0:17.708';0.165;-0.25
'0:17.712';-0.255;-0.305
'0:17.716';-0.72;-0.245
'0:17.720';-0.305;-0.215
'0:17.724';0.17;-0.265
'0:17.728';-0.215;-0.295
'0:17.732';-0.71;-0.255
'0:17.736';-0.38;-0.21
'0:17.740';0.155;-0.24
'0:17.744';-0.125;-0.315
'0:17.748';-0.665;-0.25
'0:17.752';-0.42;-0.2
'0:17.756';0.16;-0.27
'0:17.760';-0.04;-0.315
'0:17.764';-0.665;-0.25
'0:17.768';-0.535;-0.165
'0:17.772';0.07;-0.22
'0:17.776';0.055;-0.285
'0:17.780';-0.58;-0.255
'0:17.784';-0.635;-0.195
'0:17.788';0.005;-0.195
'0:17.792';0.14;-0.27
'0:17.796';-0.46;-0.3
'0:17.800';-0.71;-0.225
'0:17.804';-0.155;-0.195
'0:17.808';0.14;-0.255
'0:17.812';-0.38;-0.295
'0:17.816';-0.74;-0.295
'0:17.820';-0.265;-0.245
'0:17.824';0.17;-0.28
'0:17.828';-0.31;-0.32
'0:17.832';-0.745;-0.275
'0:17.836';-0.335;-0.235
'0:17.840';0.17;-0.265
'0:17.844';-0.23;-0.32
'0:17.848';-0.755;-0.3
'0:17.852';-0.42;-0.28
'0:17.856';0.15;-0.305
'0:17.860';-0.16;-0.32
'0:17.864';-0.75;-0.335
'0:17.868';-0.45;-0.26
'0:17.872';0.14;-0.31
'0:17.876';-0.1;-0.35
'0:17.880';-0.715;-0.32
'0:17.884';-0.57;-0.255
'0:17.888';0.075;-0.285
'0:17.892';-0.015;-0.355
'0:17.896';-0.695;-0.355
'0:17.900';-0.63;-0.26
'0:17.904';0.005;-0.3
'0:17.908';0.075;-0.36
'0:17.912';-0.545;-0.375
'0:17.916';-0.735;-0.32
'0:17.920';-0.11;-0.295
'0:17.924';0.135;-0.365
'0:17.928';-0.42;-0.355
'0:17.932';-0.705;-0.285
'0:17.936';-0.125;-0.27
'0:17.940';0.24;-0.315
'0:17.944';-0.245;-0.27
'0:17.948';-0.625;-0.175
'0:17.952';-0.165;-0.11
'0:17.956';0.275;-0.12
'0:17.960';-0.135;-0.155
'0:17.964';-0.55;-0.09
'0:17.968';-0.125;-0.075
'0:17.972';0.29;-0.15
'0:17.976';-0.14;-0.29
'0:17.980';-0.68;-0.245
'0:17.984';-0.24;-0.305
'0:17.988';0.21;-0.425
'0:17.992';-0.2;-0.51
'0:17.996';-0.72;-0.415
'0:18.000';-0.31;-0.41
'0:18.004';0.15;-0.395
'0:18.008';-0.255;-0.48
'0:18.012';-0.8;-0.44
'0:18.016';-0.46;-0.355
'0:18.020';0.075;-0.335
'0:18.024';-0.25;-0.425
'0:18.028';-0.84;-0.405
'0:18.032';-0.565;-0.345
'0:18.036';0.04;-0.385
'0:18.040';-0.16;-0.44
'0:18.044';-0.76;-0.44
'0:18.048';-0.65;-0.37
'0:18.052';-0.01;-0.4
'0:18.056';-0.07;-0.455
'0:18.060';-0.73;-0.395
'0:18.064';-0.685;-0.35
'0:18.068';-0.09;-0.38
'0:18.072';0.03;-0.44
'0:18.076';-0.615;-0.435
'0:18.080';-0.8;-0.305
'0:18.084';-0.22;-0.135
'0:18.088';0.015;0.035
'0:18.092';-0.38;0.13
'0:18.096';-0.205;0.115
'0:18.100';0.74;0.21
'0:18.104';1.265;0.355
'0:18.108';1.01;-0.235
'0:18.112';1.01;-0.94
'0:18.116';1.125;-1.525
'0:18.120';0.5;-1.87
'0:18.124';-0.65;-2.26
'0:18.128';-1.24;-2.52
'0:18.132';-0.765;-2.53
'0:18.136';-0.355;-2.63
'0:18.140';-0.82;-2.46
'0:18.144';-0.88;-1.68
'0:18.148';-0.085;-1.085
'0:18.152';0.09;-0.71
'0:18.156';-0.52;-0.375
'0:18.160';-0.8;-0.205
'0:18.164';-0.275;-0.175
'0:18.168';0.1;-0.22
'0:18.172';-0.41;-0.225
'0:18.176';-0.815;-0.195
'0:18.180';-0.39;-0.12
'0:18.184';0.09;-0.2
'0:18.188';-0.235;-0.25
'0:18.192';-0.77;-0.21
'0:18.196';-0.445;-0.13
'0:18.200';0.105;-0.175
'0:18.204';-0.175;-0.215
'0:18.208';-0.75;-0.18
'0:18.212';-0.51;-0.13
'0:18.216';0.085;-0.15
'0:18.220';-0.09;-0.18
'0:18.224';-0.69;-0.165
'0:18.228';-0.51;-0.085
'0:18.232';0.08;-0.1
'0:18.236';-0.02;-0.18
'0:18.240';-0.64;-0.125
'0:18.244';-0.535;-0.04
'0:18.248';0.1;-0.045
'0:18.252';0.06;-0.085
'0:18.256';-0.555;-0.09
'0:18.260';-0.54;0.005
'0:18.264';0.085;0.01
'0:18.268';0.17;-0.04
'0:18.272';-0.455;-0.015
'0:18.276';-0.59;0.09
'0:18.280';0.02;0.105
'0:18.284';0.255;0.085
'0:18.288';-0.33;0.105
'0:18.292';-0.61;0.2
'0:18.296';-0.02;0.225
'0:18.300';0.38;0.175
'0:18.304';-0.085;0.215
'0:18.308';-0.505;0.295
'0:18.312';-0.055;0.34
'0:18.316';0.4;0.34
'0:18.320';0.08;0.33
'0:18.324';-0.44;0.405
'0:18.328';-0.11;0.41
'0:18.332';0.48;0.46
'0:18.336';0.255;0.4
'0:18.340';-0.355;0.445
'0:18.344';-0.18;0.515
'0:18.348';0.445;0.485
'0:18.352';0.325;0.405
'0:18.356';-0.305;0.415
'0:18.360';-0.27;0.5
'0:18.364';0.33;0.475
'0:18.368';0.25;0.38
'0:18.372';-0.39;0.325
'0:18.376';-0.39;0.345
'0:18.380';0.22;0.295
'0:18.384';0.145;0.245
'0:18.388';-0.48;0.155
'0:18.392';-0.56;0.17
'0:18.396';0.065;0.1
'0:18.400';0.095;0.01
'0:18.404';-0.525;-0.035
'0:18.408';-0.665;0
'0:18.412';-0.025;-0.03
'0:18.416';0.12;-0.155
'0:18.420';-0.48;-0.2
'0:18.424';-0.655;-0.16
'0:18.428';-0.055;-0.135
'0:18.432';0.135;-0.23
'0:18.436';-0.445;-0.24
'0:18.440';-0.7;-0.23
'0:18.444';-0.145;-0.19
'0:18.448';0.19;-0.255
'0:18.452';-0.345;-0.265
'0:18.456';-0.725;-0.255
'0:18.460';-0.245;-0.205
'0:18.464';0.215;-0.24
'0:18.468';-0.23;-0.28
'0:18.472';-0.72;-0.235
'0:18.476';-0.3;-0.165
'0:18.480';0.195;-0.215
'0:18.484';-0.145;-0.26
'0:18.488';-0.68;-0.22
'0:18.492';-0.295;-0.17
'0:18.496';0.205;-0.215
'0:18.500';-0.125;-0.28
'0:18.504';-0.68;-0.23
'0:18.508';-0.36;-0.155
'0:18.512';0.165;-0.235
'0:18.516';-0.155;-0.295
'0:18.520';-0.695;-0.23
'0:18.524';-0.37;-0.15
'0:18.528';0.155;-0.18
'0:18.532';-0.11;-0.245
'0:18.536';-0.7;-0.19
'0:18.540';-0.39;-0.145
'0:18.544';0.135;-0.195
'0:18.548';-0.15;-0.24
'0:18.552';-0.7;-0.23
'0:18.556';-0.445;-0.16
'0:18.560';0.12;-0.205
'0:18.564';-0.11;-0.23
'0:18.568';-0.715;-0.255
'0:18.572';-0.555;-0.2
'0:18.576';0.05;-0.22
'0:18.580';0.03;-0.31
'0:18.584';-0.61;-0.28
'0:18.588';-0.575;-0.22
'0:18.592';0.07;-0.21
'0:18.596';0.1;-0.305
'0:18.600';-0.54;-0.305
'0:18.604';-0.635;-0.265
'0:18.608';-0.03;-0.26
'0:18.612';0.06;-0.335
'0:18.616';-0.545;-0.32
'0:18.620';-0.65;-0.25
'0:18.624';-0.03;-0.26
'0:18.628';0.055;-0.34
'0:18.632';-0.55;-0.32
'0:18.636';-0.645;-0.24
'0:18.640';-0.015;-0.235
'0:18.644';0.03;-0.325
'0:18.648';-0.555;-0.35
'0:18.652';-0.61;-0.23
'0:18.656';-0.02;-0.25
'0:18.660';0.055;-0.32
'0:18.664';-0.565;-0.32
'0:18.668';-0.68;-0.26
'0:18.672';-0.05;-0.27
'0:18.676';0.135;-0.31
'0:18.680';-0.48;-0.31
'0:18.684';-0.695;-0.285
'0:18.688';-0.14;-0.225
'0:18.692';0.23;-0.295
'0:18.696';-0.24;-0.335
'0:18.700';-0.65;-0.245
'0:18.704';-0.18;-0.17
'0:18.708';0.34;-0.16
'0:18.712';-0.065;-0.16
'0:18.716';-0.625;-0.1
'0:18.720';-0.285;-0.055
'0:18.724';0.375;-0.03
'0:18.728';0.035;-0.105
'0:18.732';-0.555;-0.145
'0:18.736';-0.325;-0.135
'0:18.740';0.23;-0.23
'0:18.744';0.01;-0.36
'0:18.748';-0.61;-0.39
'0:18.752';-0.4;-0.385
'0:18.756';0.155;-0.425
'0:18.760';-0.035;-0.43
'0:18.764';-0.64;-0.405
'0:18.768';-0.47;-0.34
'0:18.772';0.105;-0.385
'0:18.776';-0.135;-0.44
'0:18.780';-0.785;-0.365
'0:18.784';-0.64;-0.34
'0:18.788';-0.01;-0.4
'0:18.792';-0.105;-0.455
'0:18.796';-0.745;-0.435
'0:18.800';-0.69;-0.395
'0:18.804';-0.025;-0.385
'0:18.808';0.045;-0.48
'0:18.812';-0.58;-0.49
'0:18.816';-0.775;-0.41
'0:18.820';-0.155;-0.385
'0:18.824';0.125;-0.44
'0:18.828';-0.445;-0.465
'0:18.832';-0.805;-0.42
'0:18.836';-0.325;-0.39
'0:18.840';0.075;-0.41
'0:18.844';-0.42;-0.36
'0:18.848';-0.9;-0.105
'0:18.852';-0.36;0.115
'0:18.856';0.365;0.09
'0:18.860';0.445;0.005
'0:18.864';0.255;0.185
'0:18.868';0.915;0.43
'0:18.872';1.77;-0.22
'0:18.876';1.51;-1.035
'0:18.880';0.33;-1.495
'0:18.884';-0.16;-1.65
'0:18.888';-0.095;-2.055
'0:18.892';-0.655;-2.335
'0:18.896';-1.405;-2.635
'0:18.900';-1.01;-2.58
'0:18.904';-0.2;-2.2
'0:18.908';-0.23;-1.675
'0:18.912';-0.705;-1.16
'0:18.916';-0.515;-0.665
'0:18.920';0.055;-0.33
'0:18.924';-0.13;-0.285
'0:18.928';-0.74;-0.27
'0:18.932';-0.6;-0.175
'0:18.936';0;-0.19
'0:18.940';-0.07;-0.235
'0:18.944';-0.695;-0.26
'0:18.948';-0.665;-0.205
'0:18.952';-0.035;-0.19
'0:18.956';0.025;-0.23
'0:18.960';-0.575;-0.235
'0:18.964';-0.75;-0.195
'0:18.968';-0.14;-0.18
'0:18.972';0.09;-0.235
'0:18.976';-0.495;-0.265
'0:18.980';-0.725;-0.19
'0:18.984';-0.155;-0.13
'0:18.988';0.15;-0.21
'0:18.992';-0.38;-0.255
'0:18.996';-0.74;-0.17
'0:19.000';-0.225;-0.145
'0:19.004';0.16;-0.155
'0:19.008';-0.335;-0.22
'0:19.012';-0.745;-0.12
'0:19.016';-0.26;-0.09
'0:19.020';0.175;-0.15
'0:19.024';-0.25;-0.175
'0:19.028';-0.695;-0.105
'0:19.032';-0.22;-0.05
'0:19.036';0.215;-0.075
'0:19.040';-0.215;-0.11
'0:19.044';-0.62;-0.03
'0:19.048';-0.14;0.045
'0:19.052';0.325;-0.005
'0:19.056';-0.08;0
'0:19.060';-0.545;0.07
'0:19.064';-0.13;0.135
'0:19.068';0.4;0.105
'0:19.072';0.035;0.13
'0:19.076';-0.505;0.18
'0:19.080';-0.185;0.265
'0:19.084';0.385;0.245
'0:19.088';0.145;0.2
'0:19.092';-0.405;0.27
'0:19.096';-0.185;0.355
'0:19.100';0.435;0.33
'0:19.104';0.305;0.295
'0:19.108';-0.345;0.315
'0:19.112';-0.28;0.36
'0:19.116';0.35;0.38
'0:19.120';0.295;0.29
'0:19.124';-0.375;0.265
'0:19.128';-0.44;0.345
'0:19.132';0.18;0.295
'0:19.136';0.23;0.2
'0:19.140';-0.415;0.185
'0:19.144';-0.525;0.205
'0:19.148';0.085;0.145
'0:19.152';0.125;0.03
'0:19.156';-0.54;-0.025
'0:19.160';-0.63;0.01
'0:19.164';-0.01;-0.045
'0:19.168';0.02;-0.12
'0:19.172';-0.6;-0.165
'0:19.176';-0.675;-0.175
'0:19.180';-0.04;-0.175
'0:19.184';0.01;-0.285
'0:19.188';-0.59;-0.285
'0:19.192';-0.735;-0.24
'0:19.196';-0.095;-0.22
'0:19.200';0.035;-0.33
'0:19.204';-0.54;-0.37
'0:19.208';-0.73;-0.285
'0:19.212';-0.135;-0.29
'0:19.216';0.155;-0.37
'0:19.220';-0.38;-0.35
'0:19.224';-0.755;-0.295
'0:19.228';-0.245;-0.3
'0:19.232';0.195;-0.32
'0:19.236';-0.245;-0.365
'0:19.240';-0.745;-0.295
'0:19.244';-0.44;-0.29
'0:19.248';0.095;-0.305
'0:19.252';-0.16;-0.37
'0:19.256';-0.73;-0.33
'0:19.260';-0.47;-0.285
'0:19.264';0.14;-0.3
'0:19.268';-0.055;-0.365
'0:19.272';-0.655;-0.295
'0:19.276';-0.465;-0.275
'0:19.280';0.11;-0.255
'0:19.284';-0.06;-0.32
'0:19.288';-0.675;-0.305
'0:19.292';-0.49;-0.24
'0:19.296';0.1;-0.25
'0:19.300';0;-0.31
'0:19.304';-0.645;-0.29
'0:19.308';-0.585;-0.21
'0:19.312';0.045;-0.25
'0:19.316';0;-0.32
'0:19.320';-0.62;-0.32
'0:19.324';-0.64;-0.255
'0:19.328';0.01;-0.23
'0:19.332';0.09;-0.335
'0:19.336';-0.51;-0.32
'0:19.340';-0.675;-0.25
'0:19.344';-0.09;-0.25
'0:19.348';0.18;-0.31
'0:19.352';-0.37;-0.365
'0:19.356';-0.745;-0.3
'0:19.360';-0.285;-0.24
'0:19.364';0.195;-0.295
'0:19.368';-0.22;-0.345
'0:19.372';-0.745;-0.32
'0:19.376';-0.37;-0.265
'0:19.380';0.165;-0.29
'0:19.384';-0.14;-0.365
'0:19.388';-0.71;-0.32
'0:19.392';-0.42;-0.295
'0:19.396';0.12;-0.3
'0:19.400';-0.12;-0.42
'0:19.404';-0.71;-0.33
'0:19.408';-0.45;-0.26
'0:19.412';0.15;-0.33
'0:19.416';-0.06;-0.375
'0:19.420';-0.665;-0.34
'0:19.424';-0.46;-0.265
'0:19.428';0.13;-0.3
'0:19.432';-0.045;-0.375
'0:19.436';-0.64;-0.39
'0:19.440';-0.57;-0.3
'0:19.444';0.09;-0.3
'0:19.448';0.02;-0.37
'0:19.452';-0.595;-0.335
'0:19.456';-0.615;-0.285
'0:19.460';0.035;-0.28
'0:19.464';0.19;-0.34
'0:19.468';-0.445;-0.29
'0:19.472';-0.625;-0.24
'0:19.476';-0.025;-0.165
'0:19.480';0.275;-0.205
'0:19.484';-0.28;-0.19
'0:19.488';-0.615;-0.1
'0:19.492';-0.02;-0.035
'0:19.496';0.415;-0.115
'0:19.500';-0.09;-0.19
'0:19.504';-0.615;-0.225
'0:19.508';-0.18;-0.195
'0:19.512';0.255;-0.285
'0:19.516';-0.14;-0.405
'0:19.520';-0.685;-0.425
'0:19.524';-0.335;-0.42
'0:19.528';0.19;-0.425
'0:19.532';-0.12;-0.46
'0:19.536';-0.715;-0.38
'0:19.540';-0.405;-0.37
'0:19.544';0.095;-0.405
'0:19.548';-0.185;-0.4
'0:19.552';-0.785;-0.37
'0:19.556';-0.585;-0.33
'0:19.560';0.035;-0.385
'0:19.564';-0.12;-0.41
'0:19.568';-0.765;-0.48
'0:19.572';-0.665;-0.37
'0:19.576';0;-0.4
'0:19.580';0.005;-0.435
'0:19.584';-0.64;-0.46
'0:19.588';-0.695;-0.39
'0:19.592';-0.1;-0.38
'0:19.596';0;-0.46
'0:19.600';-0.635;-0.46
'0:19.604';-0.735;-0.385
'0:19.608';-0.17;-0.35
'0:19.612';0.055;-0.38
'0:19.616';-0.575;-0.26
'0:19.620';-0.815;0.01
'0:19.624';-0.08;0.145
'0:19.628';0.555;0.1
'0:19.632';0.435;0.07
'0:19.636';0.4;0.39
'0:19.640';1.17;0.38
'0:19.644';1.845;-0.38
'0:19.648';1.235;-1.085
'0:19.652';0.025;-1.415
'0:19.656';-0.295;-1.615
'0:19.660';-0.16;-1.97
'0:19.664';-0.78;-2.23
'0:19.668';-1.435;-2.565
'0:19.672';-0.945;-2.485
'0:19.676';-0.145;-2.095
'0:19.680';-0.24;-1.59
'0:19.684';-0.745;-1.135
'0:19.688';-0.51;-0.67
'0:19.692';0.08;-0.365
'0:19.696';-0.08;-0.285
'0:19.700';-0.72;-0.265
'0:19.704';-0.665;-0.18
'0:19.708';-0.025;-0.19
'0:19.712';-0.025;-0.27
'0:19.716';-0.67;-0.28
'0:19.720';-0.7;-0.185
'0:19.724';-0.08;-0.18
'0:19.728';0.095;-0.26
'0:19.732';-0.505;-0.245
'0:19.736';-0.75;-0.19
'0:19.740';-0.185;-0.16
'0:19.744';0.165;-0.215
'0:19.748';-0.32;-0.24
'0:19.752';-0.78;-0.205
'0:19.756';-0.405;-0.145
'0:19.760';0.16;-0.17
'0:19.764';-0.17;-0.22
'0:19.768';-0.74;-0.17
'0:19.772';-0.47;-0.125
'0:19.776';0.115;-0.15
'0:19.780';0.035;-0.225
'0:19.784';-0.625;-0.155
'0:19.788';-0.615;-0.075
'0:19.792';0.045;-0.1
'0:19.796';0.13;-0.15
'0:19.800';-0.485;-0.15
'0:19.804';-0.655;-0.07
'0:19.808';-0.06;-0.065
'0:19.812';0.22;-0.075
'0:19.816';-0.34;-0.1
'0:19.820';-0.645;0.005
'0:19.824';-0.105;0.035
'0:19.828';0.295;0.035
'0:19.832';-0.2;0.045
'0:19.836';-0.605;0.05
'0:19.840';-0.15;0.15
'0:19.844';0.37;0.16
'0:19.848';0.02;0.12
'0:19.852';-0.555;0.175
'0:19.856';-0.275;0.26
'0:19.860';0.365;0.265
'0:19.864';0.25;0.23
'0:19.868';-0.375;0.29
'0:19.872';-0.4;0.32
'0:19.876';0.19;0.335
'0:19.880';0.39;0.26
'0:19.884';-0.2;0.26
'0:19.888';-0.51;0.33
'0:19.892';0.025;0.33
'0:19.896';0.43;0.26
'0:19.900';-0.045;0.24
'0:19.904';-0.56;0.255
'0:19.908';-0.2;0.25
'0:19.912';0.305;0.225
'0:19.916';-0.04;0.115
'0:19.920';-0.65;0.15
'0:19.924';-0.4;0.14
'0:19.928';0.155;0.05
'0:19.932';-0.1;-0.04
'0:19.936';-0.685;-0.07
'0:19.940';-0.46;-0.04
'0:19.944';0.075;-0.13
'0:19.948';-0.19;-0.225
'0:19.952';-0.76;-0.205
'0:19.956';-0.535;-0.165
'0:19.960';0.07;-0.24
'0:19.964';-0.14;-0.34
'0:19.968';-0.72;-0.305
'0:19.972';-0.58;-0.24
'0:19.976';0.03;-0.275
'0:19.980';-0.06;-0.36
'0:19.984';-0.665;-0.34
'0:19.988';-0.65;-0.275
'0:19.992';-0.035;-0.28
'0:19.996';0.02;-0.36
'0:20.000';-0.61;-0.35
'0:20.004';-0.755;-0.285
'0:20.008';-0.175;-0.245
'0:20.012';0.1;-0.32
'0:20.016';-0.45;-0.34
'0:20.020';-0.76;-0.33
'0:20.024';-0.205;-0.28
'0:20.028';0.155;-0.31
'0:20.032';-0.34;-0.355
'0:20.036';-0.76;-0.26
'0:20.040';-0.3;-0.25
'0:20.044';0.135;-0.31
'0:20.048';-0.335;-0.365
'0:20.052';-0.73;-0.26
'0:20.056';-0.3;-0.235
'0:20.060';0.16;-0.27
'0:20.064';-0.3;-0.33
'0:20.068';-0.765;-0.28
'0:20.072';-0.3;-0.21
'0:20.076';0.14;-0.31
'0:20.080';-0.295;-0.34
'0:20.084';-0.765;-0.295
'0:20.088';-0.345;-0.25
'0:20.092';0.125;-0.295
'0:20.096';-0.275;-0.345
'0:20.100';-0.775;-0.32
'0:20.104';-0.38;-0.28
'0:20.108';0.13;-0.31
'0:20.112';-0.175;-0.38
'0:20.116';-0.76;-0.32
'0:20.120';-0.52;-0.28
'0:20.124';0.085;-0.29
'0:20.128';-0.05;-0.385
'0:20.132';-0.71;-0.315
'0:20.136';-0.65;-0.3
'0:20.140';0;-0.29
'0:20.144';0.005;-0.345
'0:20.148';-0.64;-0.37
'0:20.152';-0.715;-0.3
'0:20.156';-0.085;-0.28
'0:20.160';0.01;-0.36
'0:20.164';-0.6;-0.35
'0:20.168';-0.755;-0.295
'0:20.172';-0.14;-0.275
'0:20.176';0.05;-0.355
'0:20.180';-0.565;-0.37
'0:20.184';-0.815;-0.275
'0:20.188';-0.16;-0.275
'0:20.192';0.05;-0.33
'0:20.196';-0.49;-0.355
'0:20.200';-0.795;-0.295
'0:20.204';-0.245;-0.28
'0:20.208';0.075;-0.33
'0:20.212';-0.42;-0.35
'0:20.216';-0.815;-0.295
'0:20.220';-0.33;-0.24
'0:20.224';0.115;-0.315
'0:20.228';-0.315;-0.355
'0:20.232';-0.83;-0.305
'0:20.236';-0.405;-0.245
'0:20.240';0.13;-0.3
'0:20.244';-0.19;-0.33
'0:20.248';-0.725;-0.305
'0:20.252';-0.45;-0.2
'0:20.256';0.185;-0.135
'0:20.260';0.035;-0.165
'0:20.264';-0.64;-0.155
'0:20.268';-0.53;-0.055
'0:20.272';0.185;0
'0:20.276';0.215;-0.115
'0:20.280';-0.49;-0.16
'0:20.284';-0.625;-0.125
'0:20.288';0.02;-0.165
'0:20.292';0.17;-0.31
'0:20.296';-0.475;-0.41
'0:20.300';-0.72;-0.43
'0:20.304';-0.175;-0.4
'0:20.308';0.175;-0.4
'0:20.312';-0.335;-0.465
'0:20.316';-0.79;-0.375
'0:20.320';-0.34;-0.365
'0:20.324';0.07;-0.4
'0:20.328';-0.42;-0.42
'0:20.332';-0.9;-0.34
'0:20.336';-0.485;-0.31
'0:20.340';0.005;-0.39
'0:20.344';-0.385;-0.45
'0:20.348';-0.89;-0.39
'0:20.352';-0.55;-0.365
'0:20.356';0.03;-0.385
'0:20.360';-0.235;-0.455
'0:20.364';-0.795;-0.425
'0:20.368';-0.56;-0.37
'0:20.372';0.015;-0.4
'0:20.376';-0.14;-0.42
'0:20.380';-0.77;-0.41
'0:20.384';-0.66;-0.345
'0:20.388';-0.045;-0.32
'0:20.392';-0.16;-0.315
'0:20.396';-0.84;-0.11
'0:20.400';-0.745;0.135
'0:20.404';0.09;0.23
'0:20.408';0.56;0.105
'0:20.412';0.31;0.21
'0:20.416';0.46;0.415
'0:20.420';1.37;-0.125
'0:20.424';1.775;-0.92
'0:20.428';0.905;-1.5
'0:20.432';-0.215;-1.71
'0:20.436';-0.32;-1.995
'0:20.440';-0.37;-2.305
'0:20.444';-1.085;-2.665
'0:20.448';-1.37;-2.74
'0:20.452';-0.675;-2.345
'0:20.456';-0.09;-1.755
'0:20.460';-0.4;-1.25
'0:20.464';-0.76;-0.765
'0:20.468';-0.345;-0.33
'0:20.472';0.06;-0.215
'0:20.476';-0.415;-0.24
'0:20.480';-0.81;-0.2
'0:20.484';-0.345;-0.095
'0:20.488';0.045;-0.16
'0:20.492';-0.415;-0.21
'0:20.496';-0.825;-0.17
'0:20.500';-0.35;-0.12
'0:20.504';0.09;-0.2
'0:20.508';-0.345;-0.175
'0:20.512';-0.82;-0.155
'0:20.516';-0.435;-0.085
'0:20.520';0.115;-0.13
'0:20.524';-0.205;-0.195
'0:20.528';-0.775;-0.14
'0:20.532';-0.56;-0.08
'0:20.536';0.055;-0.1
'0:20.540';-0.05;-0.155
'0:20.544';-0.69;-0.15
'0:20.548';-0.62;-0.09
