Time;Ecg 1;Ecg 2
19:35:18.315;-599.0;-146.0
19:35:18.355;-866.0;-329.0
19:35:18.395;-853.0;-406.0
19:35:18.435;-745.0;-424.0
19:35:18.475;-703.0;-403.0
19:35:18.515;-709.0;-394.0
19:35:18.555;-647.0;-331.0
19:35:18.595;-420.0;-190.0
19:35:18.635;-181.0;-257.0
19:35:18.675;-335.0;-195.0
19:35:18.715;-355.0;-129.0
19:35:18.755;1762.0;-1353.0
19:35:18.795;-51.0;-1520.0
19:35:18.835;-225.0;-171.0
19:35:18.875;-105.0;578.0
19:35:18.915;201.0;973.0
19:35:18.955;880.0;1030.0
19:35:18.995;1094.0;788.0
19:35:19.035;450.0;490.0
19:35:19.075;-51.0;261.0
19:35:19.115;-285.0;149.0
19:35:19.155;-362.0;23.0
19:35:19.195;-288.0;-27.0
19:35:19.235;-180.0;-118.0
19:35:19.275;-137.0;-159.0
19:35:19.315;-161.0;-164.0
19:35:19.355;-106.0;-199.0
19:35:19.395;-73.0;-163.0
19:35:19.435;253.0;-79.0
19:35:19.475;132.0;-147.0
19:35:19.515;21.0;-138.0
19:35:19.555;55.0;1505.0
19:35:19.595;-240.0;-3246.0
19:35:19.635;-127.0;-1138.0
19:35:19.675;36.0;201.0
19:35:19.715;304.0;782.0
19:35:19.755;892.0;1170.0
19:35:19.795;1388.0;958.0
19:35:19.835;962.0;635.0
19:35:19.875;373.0;326.0
19:35:19.915;11.0;144.0
19:35:19.955;-82.0;34.0
19:35:19.995;-13.0;-8.0
19:35:20.035;48.0;-61.0
19:35:20.075;84.0;-125.0
19:35:20.115;75.0;-179.0
19:35:20.155;78.0;-221.0
19:35:20.195;97.0;-208.0
19:35:20.235;169.0;-132.0
19:35:20.275;474.0;-262.0
19:35:20.315;207.0;-232.0
19:35:20.355;124.0;-235.0
19:35:20.395;256.0;1489.0
19:35:20.435;64.0;-1869.0
19:35:20.475;82.0;-565.0
19:35:20.515;222.0;205.0
19:35:20.555;501.0;615.0
19:35:20.595;1091.0;1782.0
19:35:20.635;1467.0;1021.0
19:35:20.675;931.0;485.0
19:35:20.715;322.0;166.0
19:35:20.755;-18.0;-17.0
19:35:20.795;-105.0;-71.0
19:35:20.835;-92.0;-104.0
19:35:20.875;-34.0;-158.0
19:35:20.915;-49.0;-87.0
19:35:20.955;-46.0;-195.0
19:35:20.995;-45.0;-311.0
19:35:21.035;3.0;-333.0
19:35:21.075;81.0;-255.0
19:35:21.115;248.0;-54.0
19:35:21.155;-39.0;-229.0
19:35:21.195;-140.0;-305.0
19:35:21.235;254.0;1031.0
19:35:21.275;-264.0;-1796.0
19:35:21.315;-275.0;-71.0
19:35:21.355;-106.0;281.0
19:35:21.395;140.0;511.0
19:35:21.435;673.0;531.0
19:35:21.475;898.0;259.0
19:35:21.515;237.0;674.0
19:35:21.555;-376.0;93.0
19:35:21.595;-745.0;-182.0
19:35:21.635;-884.0;-304.0
19:35:21.675;-814.0;-359.0
19:35:21.715;-735.0;111.0
19:35:21.755;-661.0;-217.0
19:35:21.795;-687.0;-383.0
19:35:21.835;-654.0;-475.0
19:35:21.875;-651.0;-538.0
19:35:21.915;-432.0;-197.0
19:35:21.955;-531.0;-416.0
19:35:21.995;-577.0;-564.0
19:35:22.035;-463.0;951.0
19:35:22.075;-719.0;-3632.0
19:35:22.115;-734.0;-1684.0
19:35:22.155;-565.0;-434.0
19:35:22.195;-291.0;271.0
19:35:22.235;301.0;604.0
19:35:22.275;867.0;498.0
19:35:20.187;497.0;315.0
19:35:20.227;-161.0;59.0
19:35:20.267;-440.0;-31.0
19:35:20.307;-463.0;-82.0
19:35:20.347;-388.0;-132.0
19:35:20.387;-350.0;-182.0
19:35:20.427;-347.0;-187.0
19:35:20.467;-378.0;-209.0
19:35:20.507;-347.0;-186.0
19:35:20.547;-297.0;-170.0
19:35:20.587;45.0;-38.0
19:35:20.627;-42.0;-105.0
19:35:20.667;-134.0;-101.0
19:35:20.707;89.0;1123.0
19:35:20.747;576.0;-3766.0
19:35:20.787;36.0;-1486.0
19:35:20.827;-64.0;40.0
19:35:20.867;-7.0;884.0
19:35:20.907;480.0;1258.0
19:35:20.947;1068.0;1163.0
19:35:20.987;808.0;859.0
19:35:21.027;200.0;582.0
19:35:21.067;-148.0;432.0
19:35:21.107;-279.0;308.0
19:35:21.147;-255.0;219.0
19:35:21.187;-167.0;166.0
19:35:21.227;-141.0;98.0
19:35:21.267;-111.0;44.0
19:35:21.307;-131.0;-13.0
19:35:21.347;-132.0;-52.0
19:35:21.387;-131.0;-87.0
19:35:21.427;190.0;84.0
19:35:21.467;81.0;-30.0
19:35:21.507;-59.0;-111.0
19:35:21.547;-1.0;684.0
19:35:21.587;3791.0;-4634.0
19:35:21.627;1186.0;-2137.0
19:35:21.667;248.0;-244.0
19:35:21.707;-16.0;745.0
19:35:21.747;252.0;1259.0
19:35:21.787;819.0;1286.0
19:35:21.827;647.0;1078.0
19:35:21.867;-22.0;823.0
19:35:21.907;-422.0;639.0
19:35:21.947;-583.0;493.0
19:35:21.987;-556.0;410.0
19:35:22.027;-472.0;325.0
19:35:22.067;-438.0;248.0
19:35:22.107;-471.0;179.0
19:35:22.147;-496.0;169.0
19:35:22.187;-413.0;126.0
19:35:22.227;-286.0;31.0
19:35:22.267;-197.0;77.0
19:35:22.307;84.0;-70.0
19:35:22.347;-107.0;-52.0
19:35:22.387;-159.0;-89.0
19:35:22.427;-159.0;1514.0
19:35:22.467;-114.0;-1944.0
19:35:22.507;-193.0;-611.0
19:35:22.547;-116.0;175.0
19:35:22.587;58.0;647.0
19:35:22.627;639.0;760.0
19:35:22.667;1007.0;550.0
19:35:22.707;462.0;339.0
19:35:22.747;-192.0;148.0
19:35:22.787;-544.0;18.0
19:35:22.827;-663.0;-23.0
19:35:22.867;-610.0;-27.0
19:35:22.907;-577.0;-65.0
19:35:22.947;-497.0;-138.0
19:35:22.987;-423.0;-179.0
19:35:23.027;-502.0;-205.0
19:35:23.067;-566.0;-221.0
19:35:23.107;-372.0;-105.0
19:35:23.147;-441.0;-267.0
19:35:23.187;-584.0;-340.0
19:35:23.227;-563.0;349.0
19:35:23.267;3542.0;-4834.0
19:35:23.307;687.0;-2496.0
19:35:23.347;-273.0;-610.0
19:35:23.387;-525.0;379.0
19:35:23.427;-234.0;878.0
19:35:23.467;382.0;967.0
19:35:23.507;259.0;732.0
19:35:23.547;-302.0;452.0
19:35:23.587;-671.0;282.0
19:35:23.627;-808.0;265.0
19:35:23.667;-748.0;838.0
19:35:23.707;-578.0;479.0
19:35:23.747;-493.0;310.0
19:35:23.787;-417.0;195.0
19:35:23.827;-358.0;150.0
19:35:23.867;-316.0;335.0
19:35:23.907;-238.0;151.0
19:35:23.947;11.0;215.0
19:35:23.987;-9.0;13.0
19:35:24.027;-163.0;-54.0
19:35:24.067;-77.0;1089.0
19:35:24.107;4039.0;-4699.0
19:35:24.147;1314.0;-2267.0
19:35:22.455;329.0;-387.0
19:35:22.495;259.0;758.0
19:35:22.535;794.0;1111.0
19:35:22.575;807.0;1000.0
19:35:22.615;164.0;772.0
19:35:22.655;-241.0;555.0
19:35:22.695;-431.0;425.0
19:35:22.735;-451.0;342.0
19:35:22.775;-301.0;258.0
19:35:22.815;-175.0;168.0
19:35:22.855;-162.0;78.0
19:35:22.895;-126.0;43.0
19:35:22.935;-121.0;10.0
19:35:22.975;-117.0;-71.0
19:35:23.015;-166.0;-47.0
19:35:23.055;-90.0;-35.0
19:35:23.095;41.0;-128.0
19:35:23.135;-247.0;-152.0
19:35:23.175;-347.0;-114.0
19:35:23.215;17.0;1283.0
19:35:23.255;-428.0;-1624.0
19:35:23.295;-447.0;-385.0
19:35:23.335;-384.0;327.0
19:35:23.375;-115.0;763.0
19:35:23.415;491.0;918.0
19:35:23.455;900.0;659.0
19:35:23.495;309.0;321.0
19:35:23.535;-232.0;54.0
19:35:23.575;-500.0;-43.0
19:35:23.615;-512.0;-73.0
19:35:23.655;-373.0;-108.0
19:35:23.695;-262.0;-108.0
19:35:23.735;-284.0;-114.0
19:35:23.775;-247.0;-131.0
19:35:23.815;-226.0;-122.0
19:35:23.855;-174.0;-149.0
19:35:23.895;-134.0;-159.0
19:35:23.935;132.0;-102.0
19:35:23.975;90.0;-185.0
19:35:24.015;-103.0;-231.0
19:35:24.055;-31.0;780.0
19:35:24.095;2056.0;-4792.0
19:35:24.135;421.0;-2088.0
19:35:24.175;-63.0;-252.0
19:35:24.215;-33.0;741.0
19:35:24.255;404.0;1297.0
19:35:24.295;1071.0;1325.0
19:35:24.335;918.0;1096.0
19:35:24.375;301.0;815.0
19:35:24.415;-10.0;645.0
19:35:24.455;-101.0;550.0
19:35:24.495;-51.0;498.0
19:35:24.535;85.0;442.0
19:35:24.575;121.0;353.0
19:35:24.615;62.0;258.0
19:35:24.655;14.0;178.0
19:35:24.695;-57.0;117.0
19:35:24.735;-123.0;70.0
19:35:24.775;41.0;143.0
19:35:24.815;-4.0;-47.0
19:35:24.855;-262.0;-168.0
19:35:24.895;-251.0;-152.0
19:35:24.935;3139.0;-3534.0
19:35:24.975;744.0;-2111.0
19:35:25.015;80.0;-248.0
19:35:25.055;-56.0;704.0
19:35:25.095;198.0;1220.0
19:35:25.135;851.0;1330.0
19:35:25.175;1025.0;1115.0
19:35:25.215;454.0;837.0
19:35:25.255;-71.0;679.0
19:35:25.295;-303.0;567.0
19:35:25.335;-384.0;466.0
19:35:25.375;-354.0;348.0
19:35:25.415;-306.0;268.0
19:35:25.455;182.0;303.0
19:35:25.495;430.0;322.0
19:35:25.535;374.0;241.0
19:35:25.575;267.0;204.0
19:35:25.615;289.0;-4.0
19:35:25.655;-192.0;-106.0
19:35:25.695;-628.0;-221.0
19:35:25.735;-862.0;1479.0
19:35:25.775;-711.0;-2633.0
19:35:25.815;-568.0;-1018.0
19:35:25.855;-444.0;-77.0
19:35:25.895;-102.0;473.0
19:35:25.935;554.0;705.0
19:35:25.975;932.0;498.0
19:35:26.015;466.0;232.0
19:35:26.055;-208.0;47.0
19:35:26.095;-621.0;-55.0
19:35:26.135;-804.0;-85.0
19:35:26.175;-928.0;-47.0
19:35:26.215;-934.0;-75.0
19:35:26.255;-1057.0;-73.0
19:35:26.295;-1047.0;-101.0
19:35:26.335;-1009.0;-153.0
19:35:26.375;-654.0;-80.0
19:35:26.415;-604.0;-270.0
19:35:30.352;-690.0;-382.0
19:35:30.392;399.0;-135.0
19:35:30.432;-844.0;-1630.0
19:35:30.472;-850.0;-513.0
19:35:30.512;-689.0;182.0
19:35:30.552;-297.0;545.0
19:35:30.592;365.0;565.0
19:35:30.632;655.0;292.0
19:35:30.672;95.0;145.0
19:35:30.712;-425.0;34.0
19:35:30.752;-658.0;-7.0
19:35:30.792;-691.0;-57.0
19:35:30.832;-556.0;-136.0
19:35:30.872;-502.0;-174.0
19:35:30.912;-475.0;-249.0
19:35:30.952;-442.0;-282.0
19:35:30.992;-65.0;-117.0
19:35:31.032;39.0;-169.0
19:35:31.072;-7.0;-230.0
19:35:31.112;183.0;482.0
19:35:31.152;3604.0;-4519.0
19:35:31.192;1257.0;-2123.0
19:35:31.232;528.0;-274.0
19:35:31.272;337.0;666.0
19:35:31.312;671.0;1113.0
19:35:31.352;1298.0;1125.0
19:35:31.392;1089.0;954.0
19:35:31.432;441.0;741.0
19:35:31.472;-19.0;570.0
19:35:31.512;-178.0;488.0
19:35:31.552;-183.0;415.0
19:35:31.592;-131.0;343.0
19:35:31.632;-142.0;248.0
19:35:31.672;-165.0;167.0
19:35:31.712;-121.0;188.0
19:35:31.752;152.0;34.0
19:35:31.792;-30.0;20.0
19:35:31.832;-95.0;0.0
19:35:31.872;461.0;1388.0
19:35:31.912;69.0;-1574.0
19:35:31.952;32.0;-431.0
19:35:31.992;76.0;218.0
19:35:32.032;306.0;645.0
19:35:32.072;1006.0;725.0
19:35:32.112;1367.0;497.0
19:35:32.152;763.0;276.0
19:35:32.192;192.0;122.0
19:35:32.232;-84.0;43.0
19:35:32.272;-160.0;51.0
19:35:32.312;-76.0;34.0
19:35:32.352;-168.0;27.0
19:35:32.392;-112.0;9.0
19:35:32.432;-117.0;1.0
19:35:32.472;31.0;96.0
19:35:32.512;-4.0;1.0
19:35:32.552;-242.0;-89.0
19:35:32.592;-425.0;699.0
19:35:32.632;3144.0;-3504.0
19:35:32.672;381.0;-2085.0
19:35:32.712;-364.0;-374.0
19:35:32.752;-547.0;530.0
19:35:32.792;-281.0;1034.0
19:35:32.832;444.0;1009.0
19:35:32.872;474.0;795.0
19:35:32.912;-151.0;568.0
19:35:32.952;-532.0;395.0
19:35:32.992;-703.0;322.0
19:35:33.032;-648.0;213.0
19:35:33.072;-534.0;140.0
19:35:33.112;-448.0;47.0
19:35:33.152;-427.0;-54.0
19:35:33.192;-377.0;-121.0
19:35:33.232;-281.0;-72.0
19:35:33.272;16.0;-170.0
19:35:33.312;-196.0;-140.0
19:35:33.352;-276.0;-85.0
19:35:33.392;-43.0;1786.0
19:35:33.432;-194.0;-1717.0
19:35:33.472;-183.0;-423.0
19:35:33.512;-68.0;358.0
19:35:33.552;235.0;808.0
19:35:33.592;842.0;970.0
19:35:33.632;1229.0;712.0
19:35:33.672;606.0;441.0
19:35:33.712;53.0;212.0
19:35:33.752;-226.0;48.0
19:35:33.792;-320.0;232.0
19:35:33.832;-272.0;292.0
19:35:33.872;-201.0;16.0
19:35:33.912;-204.0;-141.0
19:35:33.952;-186.0;-254.0
19:35:33.992;-149.0;245.0
19:35:34.032;-90.0;-61.0
19:35:34.072;267.0;-311.0
19:35:34.112;58.0;-348.0
19:35:34.152;-35.0;-386.0
19:35:34.192;-125.0;1809.0
19:35:34.232;-25.0;-2499.0
19:35:34.272;-110.0;-992.0
19:35:34.312;-71.0;-86.0
19:35:42.523;104.0;492.0
19:35:42.563;852.0;449.0
19:35:42.603;682.0;226.0
19:35:42.643;23.0;-17.0
19:35:42.683;-437.0;-156.0
19:35:42.723;-598.0;-240.0
19:35:42.763;-539.0;-271.0
19:35:42.803;-415.0;-308.0
19:35:42.843;-398.0;-334.0
19:35:42.883;-462.0;-363.0
19:35:42.923;-404.0;-331.0
19:35:42.963;-255.0;-273.0
19:35:43.003;93.0;-316.0
19:35:43.043;27.0;-242.0
19:35:43.083;17.0;-152.0
19:35:43.123;796.0;929.0
19:35:43.163;217.0;-1644.0
19:35:43.203;194.0;-350.0
19:35:43.243;238.0;477.0
19:35:43.283;471.0;918.0
19:35:43.323;1076.0;1026.0
19:35:43.363;1375.0;761.0
19:35:43.403;733.0;477.0
19:35:43.443;150.0;244.0
19:35:43.483;-197.0;124.0
19:35:43.523;-311.0;58.0
19:35:43.563;-316.0;-28.0
19:35:43.603;-346.0;-110.0
19:35:43.643;-397.0;-192.0
19:35:43.683;-455.0;-258.0
19:35:43.723;-461.0;-303.0
19:35:43.763;-490.0;-313.0
19:35:43.803;-257.0;-180.0
19:35:43.843;-239.0;-279.0
19:35:43.883;-427.0;-295.0
19:35:43.923;-478.0;-215.0
19:35:43.963;2925.0;-3736.0
19:35:44.003;450.0;-2210.0
19:35:44.043;-259.0;-328.0
19:35:44.083;-415.0;654.0
19:35:44.123;-204.0;1171.0
19:35:44.163;426.0;1225.0
19:35:44.203;463.0;988.0
19:35:44.243;-170.0;730.0
19:35:44.283;-620.0;457.0
19:35:44.323;-810.0;293.0
19:35:44.363;-745.0;173.0
19:35:44.403;-668.0;138.0
19:35:44.443;-608.0;81.0
19:35:44.483;-628.0;24.0
19:35:44.523;-586.0;-60.0
19:35:44.563;-561.0;-102.0
19:35:44.603;-500.0;-151.0
19:35:44.643;-360.0;-84.0
19:35:44.683;-10.0;-194.0
19:35:44.723;-138.0;-206.0
19:35:44.763;-266.0;-195.0
19:35:44.803;-389.0;1754.0
19:35:44.843;-95.0;-2431.0
19:35:44.883;-211.0;-841.0
19:35:44.923;-158.0;127.0
19:35:44.963;114.0;666.0
19:35:45.003;618.0;939.0
19:35:45.043;1007.0;990.0
19:35:45.083;551.0;582.0
19:35:45.123;-1.0;280.0
19:35:45.163;-330.0;117.0
19:35:45.203;-449.0;54.0
19:35:45.243;-459.0;652.0
19:35:45.283;-391.0;214.0
19:35:45.323;-412.0;22.0
19:35:45.363;-470.0;-68.0
19:35:45.403;-477.0;-103.0
19:35:45.443;-498.0;263.0
19:35:45.483;-337.0;82.0
19:35:45.523;-79.0;-150.0
19:35:45.563;-284.0;-203.0
19:35:45.603;-359.0;-258.0
19:35:45.643;-416.0;1535.0
19:35:45.683;-273.0;-2073.0
19:35:45.723;-325.0;-689.0
19:35:45.763;-226.0;116.0
19:35:45.803;35.0;558.0
19:35:45.843;597.0;919.0
19:35:45.883;1031.0;627.0
19:35:45.923;539.0;337.0
19:35:45.963;-59.0;122.0
19:35:46.003;-410.0;41.0
19:35:46.043;-485.0;7.0
19:35:46.083;-439.0;-14.0
19:35:46.123;-397.0;-39.0
19:35:46.163;-421.0;-59.0
19:35:46.203;-441.0;-106.0
19:35:46.243;-395.0;-79.0
19:35:46.283;-352.0;-111.0
19:35:46.323;-295.0;-44.0
19:35:46.363;-55.0;-155.0
19:35:46.403;-259.0;-176.0
19:35:46.443;-346.0;-172.0
19:35:46.483;616.0;107.0
19:35:46.952;-318.0;-1506.0
19:35:46.992;-243.0;-145.0
19:35:47.032;55.0;566.0
19:35:47.072;609.0;834.0
19:35:47.112;1025.0;713.0
19:35:47.152;524.0;427.0
19:35:47.192;-30.0;175.0
19:35:47.232;-316.0;27.0
19:35:47.272;-369.0;930.0
19:35:47.312;-285.0;297.0
19:35:47.352;-227.0;-41.0
19:35:47.392;-228.0;-195.0
19:35:47.432;-246.0;-274.0
19:35:47.472;-191.0;-293.0
19:35:47.512;-182.0;-304.0
19:35:47.552;72.0;-92.0
19:35:47.592;63.0;-244.0
19:35:47.632;-86.0;-290.0
19:35:47.672;-119.0;211.0
19:35:47.712;3976.0;-4519.0
19:35:47.752;1221.0;-2255.0
19:35:47.792;332.0;-380.0
19:35:47.832;62.0;594.0
19:35:47.872;201.0;1037.0
19:35:47.912;615.0;1000.0
19:35:47.952;377.0;749.0
19:35:47.992;-295.0;461.0
19:35:48.032;-759.0;279.0
19:35:48.072;-945.0;174.0
19:35:48.112;-907.0;101.0
19:35:48.152;-779.0;-5.0
19:35:48.192;-721.0;-106.0
19:35:48.232;-680.0;-163.0
19:35:48.272;-664.0;-230.0
19:35:48.312;-567.0;-224.0
19:35:48.352;-291.0;-330.0
19:35:48.392;-426.0;-355.0
19:35:48.432;-473.0;-326.0
19:35:48.472;136.0;409.0
19:35:48.512;-467.0;-1591.0
19:35:48.552;-397.0;-450.0
19:35:48.592;-180.0;263.0
19:35:48.632;176.0;727.0
19:35:48.672;838.0;861.0
19:35:48.712;1150.0;656.0
19:35:48.752;581.0;381.0
19:35:48.792;-57.0;162.0
19:35:48.832;-408.0;-2.0
19:35:48.872;-571.0;-82.0
19:35:48.912;-602.0;-127.0
19:35:48.952;-639.0;-149.0
19:35:48.992;-647.0;-136.0
19:35:49.032;-650.0;-169.0
19:35:49.072;-593.0;-144.0
19:35:49.112;-376.0;-63.0
19:35:49.152;-292.0;-140.0
19:35:49.192;-408.0;-178.0
19:35:49.232;-472.0;-179.0
19:35:49.272;1789.0;-1745.0
19:35:49.312;-34.0;-1676.0
19:35:49.352;-218.0;-176.0
19:35:49.392;-168.0;476.0
19:35:49.432;286.0;891.0
19:35:49.472;973.0;924.0
19:35:49.512;1256.0;731.0
19:35:49.552;704.0;768.0
19:35:49.592;221.0;436.0
19:35:49.632;-29.0;266.0
19:35:49.672;-30.0;141.0
19:35:49.712;63.0;142.0
19:35:49.752;60.0;643.0
19:35:49.792;47.0;302.0
19:35:49.832;71.0;47.0
19:35:49.872;129.0;28.0
19:35:49.912;503.0;200.0
19:35:49.952;572.0;780.0
19:35:49.992;496.0;354.0
19:35:50.032;680.0;989.0
19:35:50.072;3679.0;-4078.0
19:35:50.112;1413.0;-1923.0
19:35:50.152;600.0;350.0
19:35:50.192;316.0;807.0
19:35:50.232;574.0;953.0
19:35:50.272;1025.0;746.0
19:35:50.312;692.0;476.0
19:35:50.352;-25.0;474.0
19:35:50.392;-420.0;165.0
19:35:50.432;-594.0;55.0
19:35:50.472;-502.0;-23.0
19:35:50.512;-311.0;-71.0
19:35:50.552;-271.0;-90.0
19:35:50.592;-227.0;-130.0
19:35:50.632;-201.0;-176.0
19:35:50.672;-93.0;-128.0
19:35:50.712;3.0;-256.0
19:35:50.752;-203.0;-308.0
19:35:50.792;-298.0;-323.0
19:35:50.832;1227.0;-697.0
19:35:50.872;-228.0;-1626.0
19:35:50.912;-294.0;-444.0
19:35:49.623;-90.0;241.0
19:35:49.663;898.0;539.0
19:35:49.703;1552.0;442.0
19:35:49.743;1151.0;264.0
19:35:49.783;663.0;131.0
19:35:49.823;450.0;85.0
19:35:49.863;414.0;79.0
19:35:49.903;531.0;60.0
19:35:49.943;647.0;17.0
19:35:49.983;623.0;-11.0
19:35:50.023;592.0;-58.0
19:35:50.063;560.0;-57.0
19:35:50.103;592.0;-62.0
19:35:50.143;794.0;41.0
19:35:50.183;673.0;-67.0
19:35:50.223;579.0;-118.0
19:35:50.263;828.0;955.0
19:35:50.303;1402.0;-3913.0
19:35:50.343;745.0;-1670.0
19:35:50.383;713.0;-155.0
19:35:50.423;795.0;661.0
19:35:50.463;1283.0;1064.0
19:35:50.503;1859.0;973.0
19:35:50.543;1603.0;777.0
19:35:50.583;897.0;555.0
19:35:50.623;377.0;393.0
19:35:50.663;150.0;349.0
19:35:50.703;41.0;329.0
19:35:50.743;26.0;273.0
19:35:50.783;-21.0;218.0
19:35:50.823;-138.0;130.0
19:35:50.863;-301.0;41.0
19:35:50.903;-458.0;-48.0
19:35:50.943;-361.0;21.0
19:35:50.983;-525.0;-201.0
19:35:51.023;-796.0;-241.0
19:35:51.063;-944.0;-241.0
19:35:51.103;2230.0;-3201.0
19:35:51.143;-283.0;-2201.0
19:35:51.183;-757.0;-497.0
19:35:51.223;-757.0;388.0
19:35:51.263;-500.0;897.0
19:35:51.303;199.0;957.0
19:35:51.343;292.0;654.0
19:35:51.383;-319.0;355.0
19:35:51.423;-733.0;148.0
19:35:51.463;-922.0;62.0
19:35:51.503;-967.0;30.0
19:35:51.543;-918.0;4.0
19:35:51.583;-879.0;-10.0
19:35:51.623;-848.0;-22.0
19:35:51.663;-914.0;-69.0
19:35:51.703;-935.0;-47.0
19:35:51.743;-892.0;-17.0
19:35:51.783;-757.0;72.0
19:35:51.823;-504.0;-2.0
19:35:51.863;-720.0;63.0
19:35:51.903;-802.0;38.0
19:35:51.943;-261.0;1201.0
19:35:51.983;-750.0;-1461.0
19:35:52.023;-817.0;-209.0
19:35:52.063;-711.0;499.0
19:35:52.103;-399.0;946.0
19:35:52.143;269.0;1093.0
19:35:52.183;672.0;843.0
19:35:52.223;156.0;531.0
19:35:52.263;-336.0;259.0
19:35:52.303;-592.0;86.0
19:35:52.343;-663.0;25.0
19:35:52.383;-575.0;20.0
19:35:52.423;-502.0;-3.0
19:35:52.463;-471.0;-37.0
19:35:52.503;-435.0;-59.0
19:35:52.543;-441.0;-50.0
19:35:52.583;-401.0;523.0
19:35:52.623;-440.0;212.0
19:35:52.663;-194.0;312.0
19:35:52.703;-196.0;137.0
19:35:52.743;-379.0;-8.0
19:35:52.783;-387.0;508.0
19:35:52.823;3854.0;-4610.0
19:35:52.863;962.0;-2188.0
19:35:52.903;-84.0;-66.0
19:35:52.943;-402.0;803.0
19:35:52.983;-208.0;1257.0
19:35:53.023;352.0;1258.0
19:35:53.063;240.0;969.0
19:35:53.103;-413.0;1222.0
19:35:53.143;-803.0;631.0
19:35:53.183;-893.0;307.0
19:35:53.223;-864.0;134.0
19:35:53.263;-732.0;71.0
19:35:53.303;-716.0;209.0
19:35:53.343;-670.0;27.0
19:35:53.383;-668.0;-51.0
19:35:53.423;-630.0;-94.0
19:35:53.463;-563.0;-95.0
19:35:53.503;-458.0;439.0
19:35:53.543;-237.0;82.0
19:35:53.583;-455.0;-19.0
19:35:50.709;-522.0;-98.0
19:35:50.749;-345.0;-3360.0
19:35:50.789;-529.0;-1117.0
19:35:50.829;-463.0;107.0
19:35:50.869;-245.0;792.0
19:35:50.909;355.0;1060.0
19:35:50.949;840.0;960.0
19:35:50.989;396.0;692.0
19:35:51.029;-243.0;450.0
19:35:51.069;-562.0;309.0
19:35:51.109;-660.0;195.0
19:35:51.149;-585.0;126.0
19:35:51.189;-513.0;86.0
19:35:51.229;-473.0;27.0
19:35:51.269;-515.0;31.0
19:35:51.309;-472.0;3.0
19:35:51.349;-411.0;-21.0
19:35:51.389;-437.0;6.0
19:35:51.429;-151.0;90.0
19:35:51.469;-271.0;-30.0
19:35:51.509;-364.0;-105.0
19:35:51.549;-177.0;1201.0
19:35:51.589;-117.0;-3647.0
19:35:51.629;-291.0;-1448.0
19:35:51.669;-229.0;-99.0
19:35:51.709;-34.0;622.0
19:35:51.749;412.0;952.0
19:35:51.789;930.0;881.0
19:35:51.829;625.0;595.0
19:35:51.869;3.0;299.0
19:35:51.909;-359.0;133.0
19:35:51.949;-483.0;66.0
19:35:51.989;-482.0;11.0
19:35:52.029;-410.0;5.0
19:35:52.069;-389.0;-7.0
19:35:52.109;-394.0;0.0
19:35:52.149;-381.0;-12.0
19:35:52.189;-342.0;-26.0
19:35:52.229;-51.0;105.0
19:35:52.269;-23.0;24.0
19:35:52.309;-184.0;-43.0
19:35:52.349;-276.0;144.0
19:35:52.389;3654.0;-4309.0
19:35:52.429;935.0;-2236.0
19:35:52.469;60.0;-293.0
19:35:52.509;-203.0;693.0
19:35:52.549;39.0;1189.0
19:35:52.589;596.0;1283.0
19:35:52.629;545.0;1019.0
19:35:52.669;-87.0;717.0
19:35:52.709;-474.0;449.0
19:35:52.749;-675.0;313.0
19:35:52.789;-677.0;261.0
19:35:52.829;-564.0;171.0
19:35:52.869;-482.0;112.0
19:35:52.909;-438.0;33.0
19:35:52.949;-373.0;-46.0
19:35:52.989;-340.0;-54.0
19:35:53.029;-290.0;-34.0
19:35:53.069;19.0;192.0
19:35:53.109;-122.0;17.0
19:35:53.149;-244.0;-92.0
19:35:53.189;-155.0;1229.0
19:35:53.229;-173.0;-3541.0
19:35:53.269;-250.0;-1295.0
19:35:53.309;-231.0;60.0
19:35:53.349;-7.0;762.0
19:35:53.389;510.0;1115.0
19:35:53.429;1063.0;1081.0
19:35:53.469;837.0;1277.0
19:35:53.509;328.0;762.0
19:35:53.549;-35.0;494.0
19:35:53.589;-223.0;298.0
19:35:53.629;-239.0;141.0
19:35:53.669;-251.0;230.0
19:35:53.709;-262.0;-13.0
19:35:53.749;-337.0;-137.0
19:35:53.789;-391.0;-223.0
19:35:53.829;-459.0;-208.0
19:35:53.869;-324.0;-308.0
19:35:53.909;-554.0;-344.0
19:35:53.949;-654.0;-327.0
19:35:53.989;658.0;-518.0
19:35:54.029;-746.0;-1624.0
19:35:54.069;-829.0;179.0
19:35:54.109;-767.0;457.0
19:35:54.149;-490.0;660.0
19:35:54.189;126.0;641.0
19:35:54.229;343.0;334.0
19:35:54.269;-247.0;134.0
19:35:54.309;-633.0;-91.0
19:35:54.349;-820.0;-138.0
19:35:54.389;-735.0;-199.0
19:35:54.429;-604.0;-274.0
19:35:54.469;-515.0;-1.0
19:35:54.509;-401.0;-194.0
19:35:54.549;-264.0;-275.0
19:35:54.589;-214.0;-287.0
19:35:54.629;104.0;-163.0
19:35:54.669;63.0;-129.0
19:35:55.388;-60.0;-280.0
19:35:55.428;4484.0;-5544.0
19:35:55.468;1314.0;-2580.0
19:35:55.508;203.0;-430.0
19:35:55.548;-214.0;719.0
19:35:55.588;40.0;1296.0
19:35:55.628;610.0;1333.0
19:35:55.668;495.0;1022.0
19:35:55.708;-127.0;672.0
19:35:55.748;-540.0;430.0
19:35:55.788;-738.0;323.0
19:35:55.828;-769.0;243.0
19:35:55.868;-671.0;182.0
19:35:55.908;-691.0;125.0
19:35:55.948;-681.0;74.0
19:35:55.988;-628.0;57.0
19:35:56.028;-378.0;108.0
19:35:56.068;-341.0;14.0
19:35:56.108;-570.0;-58.0
19:35:56.148;-617.0;266.0
19:35:56.188;3825.0;-4839.0
19:35:56.228;888.0;-2269.0
19:35:56.268;-156.0;-196.0
19:35:56.308;-460.0;855.0
19:35:56.348;-274.0;1426.0
19:35:56.388;349.0;1481.0
19:35:56.428;315.0;1186.0
19:35:56.468;-345.0;839.0
19:35:56.508;-745.0;624.0
19:35:56.548;-908.0;486.0
19:35:56.588;-879.0;392.0
19:35:56.628;-781.0;272.0
19:35:56.668;-708.0;161.0
19:35:56.708;-622.0;102.0
19:35:56.748;-513.0;73.0
19:35:56.788;-395.0;71.0
19:35:56.828;-168.0;-93.0
19:35:56.868;-344.0;-163.0
19:35:56.908;-393.0;-192.0
19:35:56.948;1124.0;-579.0
19:35:56.988;-106.0;-1489.0
19:35:57.028;-71.0;-234.0
19:35:57.068;82.0;457.0
19:35:57.108;480.0;801.0
19:35:57.148;1160.0;873.0
19:35:57.188;1369.0;603.0
19:35:57.228;658.0;350.0
19:35:57.268;112.0;170.0
19:35:57.308;-118.0;90.0
19:35:57.348;-167.0;65.0
19:35:57.388;-118.0;66.0
19:35:57.428;-167.0;43.0
19:35:57.468;-149.0;27.0
19:35:57.508;-152.0;52.0
19:35:57.548;-111.0;38.0
19:35:57.588;179.0;206.0
19:35:57.628;210.0;94.0
19:35:57.668;15.0;3.0
19:35:57.708;-71.0;114.0
19:35:57.748;3801.0;-4239.0
19:35:57.788;1116.0;-2276.0
19:35:57.828;118.0;-322.0
19:35:57.868;-177.0;682.0
19:35:57.908;54.0;1202.0
19:35:57.948;644.0;1229.0
19:35:57.988;591.0;1043.0
19:35:58.028;-51.0;783.0
19:35:58.068;-457.0;609.0
19:35:58.108;-629.0;537.0
19:35:58.148;-609.0;496.0
19:35:58.188;-508.0;430.0
19:35:58.228;-443.0;358.0
19:35:58.268;-424.0;297.0
19:35:58.308;-420.0;246.0
19:35:58.348;-414.0;206.0
19:35:58.388;-73.0;275.0
19:35:58.428;-169.0;160.0
19:35:58.468;-308.0;71.0
19:35:58.508;-97.0;1158.0
19:35:58.548;217.0;-3446.0
19:35:58.588;-137.0;-1440.0
19:35:58.628;-76.0;-66.0
19:35:58.668;142.0;644.0
19:35:58.708;711.0;913.0
19:35:58.748;1312.0;804.0
19:35:58.788;1057.0;599.0
19:35:58.828;396.0;916.0
19:35:58.868;60.0;482.0
19:35:58.908;-46.0;273.0
19:35:58.948;-18.0;164.0
19:35:58.988;65.0;34.0
19:35:59.028;72.0;593.0
19:35:59.068;57.0;192.0
19:35:59.108;20.0;-22.0
19:35:59.148;7.0;-157.0
19:35:59.188;237.0;-62.0
19:35:59.228;-3.0;38.0
19:35:59.268;-175.0;-157.0
19:35:59.308;-71.0;935.0
19:35:59.348;-375.0;-3232.0
19:36:03.882;-563.0;-1478.0
19:36:03.922;-341.0;-169.0
19:36:03.962;69.0;465.0
19:36:04.002;622.0;428.0
19:36:04.042;317.0;281.0
19:36:04.082;-385.0;96.0
19:36:04.122;-763.0;-26.0
19:36:04.162;-891.0;-48.0
19:36:04.202;-778.0;-56.0
19:36:04.242;-689.0;-88.0
19:36:04.282;-667.0;-150.0
19:36:04.322;-609.0;-194.0
19:36:04.362;-530.0;-195.0
19:36:04.402;-409.0;-232.0
19:36:04.442;-46.0;-61.0
19:36:04.482;22.0;-173.0
19:36:04.522;-9.0;-237.0
19:36:04.562;163.0;442.0
19:36:04.602;4340.0;-4947.0
19:36:04.642;1685.0;-2260.0
19:36:04.682;749.0;-274.0
19:36:04.722;497.0;770.0
19:36:04.762;812.0;1292.0
19:36:04.802;1335.0;1303.0
19:36:04.842;1011.0;1048.0
19:36:04.882;182.0;792.0
19:36:04.922;-425.0;544.0
19:36:04.962;-869.0;303.0
19:36:05.002;-1106.0;303.0
19:36:05.042;-1001.0;284.0
19:36:05.082;-812.0;326.0
19:36:05.122;-439.0;359.0
19:36:05.162;-164.0;364.0
19:36:05.202;4.0;397.0
19:36:05.242;297.0;439.0
19:36:05.282;153.0;398.0
19:36:05.322;57.0;343.0
19:36:05.362;163.0;2032.0
19:36:05.402;127.0;-1735.0
19:36:05.442;134.0;-357.0
19:36:05.482;196.0;441.0
19:36:05.522;459.0;840.0
19:36:05.562;1068.0;970.0
19:36:05.602;1234.0;789.0
19:36:05.642;623.0;364.0
19:36:05.682;-211.0;218.0
19:36:05.722;-679.0;146.0
19:36:05.762;-688.0;184.0
19:36:05.802;-405.0;288.0
19:36:05.842;-82.0;284.0
19:36:05.882;-105.0;224.0
19:36:05.922;-160.0;249.0
19:36:05.962;-84.0;241.0
19:36:06.002;31.0;307.0
19:36:06.042;-107.0;130.0
19:36:06.082;-238.0;105.0
19:36:06.122;-308.0;1966.0
19:36:06.162;-183.0;-2376.0
19:36:06.202;149.0;-570.0
19:36:06.242;468.0;282.0
19:36:06.282;810.0;745.0
19:36:06.322;1441.0;878.0
19:36:06.362;2051.0;742.0
19:36:06.402;1662.0;572.0
19:36:06.442;1338.0;242.0
19:36:06.482;925.0;90.0
19:36:06.522;710.0;45.0
19:36:06.562;847.0;6.0
19:36:06.602;1096.0;-62.0
19:36:06.642;888.0;-52.0
19:36:06.682;854.0;-216.0
19:36:06.722;835.0;-176.0
19:36:06.762;816.0;-264.0
19:36:06.802;812.0;-189.0
19:36:06.842;587.0;-66.0
19:36:06.882;2810.0;-1465.0
19:36:06.922;1223.0;-1501.0
19:36:06.962;800.0;1017.0
19:36:07.002;919.0;957.0
19:36:07.042;1599.0;789.0
19:36:07.082;2186.0;618.0
19:36:07.122;2116.0;404.0
19:36:07.162;1288.0;285.0
19:36:07.202;428.0;355.0
19:36:07.242;222.0;158.0
19:36:07.282;295.0;-10.0
19:36:07.322;236.0;-85.0
19:36:07.362;237.0;-114.0
19:36:07.402;113.0;172.0
19:36:07.442;519.0;-1.0
19:36:07.482;283.0;-163.0
19:36:07.522;188.0;-269.0
19:36:07.562;303.0;-22.0
19:36:07.602;3914.0;-4315.0
19:36:07.642;1680.0;-2141.0
19:36:07.682;896.0;-260.0
19:36:07.722;597.0;654.0
19:36:07.762;820.0;1108.0
19:36:07.802;1367.0;1135.0
19:36:07.842;1192.0;1043.0
19:36:10.186;312.0;854.0
19:36:10.226;-74.0;643.0
19:36:10.266;-394.0;508.0
19:36:10.306;-604.0;444.0
19:36:10.346;-626.0;458.0
19:36:10.386;-565.0;473.0
19:36:10.426;-258.0;392.0
19:36:10.466;-423.0;343.0
19:36:10.506;-300.0;311.0
19:36:10.546;126.0;1954.0
19:36:10.586;-310.0;-1191.0
19:36:10.626;-135.0;-72.0
19:36:10.666;9.0;421.0
19:36:10.706;279.0;686.0
19:36:10.746;776.0;633.0
19:36:10.786;927.0;465.0
19:36:10.826;253.0;373.0
19:36:10.866;-419.0;239.0
19:36:10.906;-757.0;141.0
19:36:10.946;-975.0;65.0
19:36:10.986;-1106.0;-16.0
19:36:11.026;-1231.0;-52.0
19:36:11.066;-1186.0;65.0
19:36:11.106;-1370.0;-83.0
19:36:11.146;-1605.0;-190.0
19:36:11.186;-1568.0;474.0
19:36:11.226;1233.0;-4171.0
19:36:11.266;-869.0;-2059.0
19:36:11.306;-1491.0;-391.0
19:36:11.346;-1597.0;464.0
19:36:11.386;-1261.0;839.0
19:36:11.426;-726.0;782.0
19:36:11.466;-983.0;590.0
19:36:11.506;-1555.0;352.0
19:36:11.546;-1849.0;190.0
19:36:11.586;-1808.0;95.0
19:36:11.626;-1624.0;-19.0
19:36:11.666;-1516.0;-91.0
19:36:11.706;-1385.0;-121.0
19:36:11.746;-1205.0;-105.0
19:36:11.786;-883.0;-300.0
19:36:11.826;-1102.0;-233.0
19:36:11.866;-1093.0;-239.0
19:36:11.906;-409.0;943.0
19:36:11.946;-1125.0;-1488.0
19:36:11.986;-1093.0;-410.0
19:36:12.026;-893.0;216.0
19:36:12.066;-595.0;601.0
19:36:12.106;7.0;648.0
19:36:12.146;111.0;379.0
19:36:12.186;-563.0;134.0
19:36:12.226;-1110.0;-45.0
19:36:12.266;-1401.0;-78.0
19:36:12.306;-1380.0;-145.0
19:36:12.346;-1283.0;-164.0
19:36:12.386;-1154.0;-215.0
19:36:12.426;-1116.0;-229.0
19:36:12.466;-869.0;-223.0
19:36:12.506;-1087.0;-245.0
19:36:12.546;-1163.0;-315.0
19:36:12.586;-841.0;1294.0
19:36:12.626;-928.0;-2121.0
19:36:12.666;-932.0;-703.0
19:36:12.706;-714.0;110.0
19:36:12.746;-389.0;585.0
19:36:12.786;291.0;737.0
19:36:12.826;652.0;545.0
19:36:12.866;45.0;262.0
19:36:12.906;-513.0;75.0
19:36:12.946;-798.0;-3.0
19:36:12.986;-841.0;-24.0
19:36:13.026;-723.0;-76.0
19:36:13.066;-622.0;-98.0
19:36:13.106;-572.0;-99.0
19:36:13.146;-502.0;-74.0
19:36:13.186;-155.0;-66.0
19:36:13.226;-326.0;879.0
19:36:13.266;-397.0;1338.0
19:36:13.306;-392.0;2424.0
19:36:13.346;-302.0;-2363.0
19:36:13.386;-407.0;-999.0
19:36:13.426;-409.0;-158.0
19:36:13.466;-152.0;353.0
19:36:13.506;383.0;544.0
19:36:13.546;745.0;289.0
19:36:13.586;273.0;-76.0
19:36:13.626;-257.0;-330.0
19:36:13.666;-524.0;-427.0
19:36:13.706;-551.0;-488.0
19:36:13.746;-450.0;-506.0
19:36:13.786;-330.0;-509.0
19:36:13.826;-377.0;-527.0
19:36:13.866;-417.0;-532.0
19:36:13.906;-188.0;-389.0
19:36:13.946;-166.0;-490.0
19:36:13.986;-337.0;-484.0
19:36:14.026;-428.0;-348.0
19:36:14.066;3347.0;-4418.0
19:36:14.106;387.0;-2651.0
19:36:14.146;-355.0;-597.0
19:36:10.886;-60.0;-280.0
19:36:10.926;4484.0;-5544.0
19:36:10.966;1314.0;-2580.0
19:36:11.006;203.0;-430.0
19:36:11.046;-214.0;719.0
19:36:11.086;40.0;1296.0
19:36:11.126;610.0;1333.0
19:36:11.166;495.0;1022.0
19:36:11.206;-127.0;672.0
19:36:11.246;-540.0;430.0
19:36:11.286;-738.0;323.0
19:36:11.326;-769.0;243.0
19:36:11.366;-671.0;182.0
19:36:11.406;-691.0;125.0
19:36:11.446;-681.0;74.0
19:36:11.486;-628.0;57.0
19:36:11.526;-378.0;108.0
19:36:11.566;-341.0;14.0
19:36:11.606;-570.0;-58.0
19:36:11.646;-617.0;266.0
19:36:11.686;3825.0;-4839.0
19:36:11.726;888.0;-2269.0
19:36:11.766;-156.0;-196.0
19:36:11.806;-460.0;855.0
19:36:11.846;-274.0;1426.0
19:36:11.886;349.0;1481.0
19:36:11.926;315.0;1186.0
19:36:11.966;-345.0;839.0
19:36:12.006;-745.0;624.0
19:36:12.046;-908.0;486.0
19:36:12.086;-879.0;392.0
19:36:12.126;-781.0;272.0
19:36:12.166;-708.0;161.0
19:36:12.206;-622.0;102.0
19:36:12.246;-513.0;73.0
19:36:12.286;-395.0;71.0
19:36:12.326;-168.0;-93.0
19:36:12.366;-344.0;-163.0
19:36:12.406;-393.0;-192.0
19:36:12.446;1124.0;-579.0
19:36:12.486;-106.0;-1489.0
19:36:12.526;-71.0;-234.0
19:36:12.566;82.0;457.0
19:36:12.606;480.0;801.0
19:36:12.646;1160.0;873.0
19:36:12.686;1369.0;603.0
19:36:12.726;658.0;350.0
19:36:12.766;112.0;170.0
19:36:12.806;-118.0;90.0
19:36:12.846;-167.0;65.0
19:36:12.886;-118.0;66.0
19:36:12.926;-167.0;43.0
19:36:12.966;-149.0;27.0
19:36:13.006;-152.0;52.0
19:36:13.046;-111.0;38.0
19:36:13.086;179.0;206.0
19:36:13.126;210.0;94.0
19:36:13.166;15.0;3.0
19:36:13.206;-71.0;114.0
19:36:13.246;3801.0;-4239.0
19:36:13.286;1116.0;-2276.0
19:36:13.326;118.0;-322.0
19:36:13.366;-177.0;682.0
19:36:13.406;54.0;1202.0
19:36:13.446;644.0;1229.0
19:36:13.486;591.0;1043.0
19:36:13.526;-51.0;783.0
19:36:13.566;-457.0;609.0
19:36:13.606;-629.0;537.0
19:36:13.646;-609.0;496.0
19:36:13.686;-508.0;430.0
19:36:13.726;-443.0;358.0
19:36:13.766;-424.0;297.0
19:36:13.806;-420.0;246.0
19:36:13.846;-414.0;206.0
19:36:13.886;-73.0;275.0
19:36:13.926;-169.0;160.0
19:36:13.966;-308.0;71.0
19:36:14.006;-97.0;1158.0
19:36:14.046;217.0;-3446.0
19:36:14.086;-137.0;-1440.0
19:36:14.126;-76.0;-66.0
19:36:14.166;142.0;644.0
19:36:14.206;711.0;913.0
19:36:14.246;1312.0;804.0
19:36:14.286;1057.0;599.0
19:36:14.326;396.0;916.0
19:36:14.366;60.0;482.0
19:36:14.406;-46.0;273.0
19:36:14.446;-18.0;164.0
19:36:14.486;65.0;34.0
19:36:14.526;72.0;593.0
19:36:14.566;57.0;192.0
19:36:14.606;20.0;-22.0
19:36:14.646;7.0;-157.0
19:36:14.686;237.0;-62.0
19:36:14.726;-3.0;38.0
19:36:14.766;-175.0;-157.0
19:36:14.806;-71.0;935.0
19:36:14.846;-375.0;-3232.0
19:36:19.344;-523.0;493.0
19:36:19.384;194.0;984.0
19:36:19.424;451.0;867.0
19:36:19.464;-47.0;601.0
19:36:19.504;-545.0;896.0
19:36:19.544;-739.0;524.0
19:36:19.584;-769.0;309.0
19:36:19.624;-691.0;184.0
19:36:19.664;-614.0;94.0
19:36:19.704;-600.0;222.0
19:36:19.744;-608.0;92.0
19:36:19.784;-512.0;30.0
19:36:19.824;-370.0;21.0
19:36:19.864;120.0;20.0
19:36:19.904;132.0;91.0
19:36:19.944;126.0;63.0
19:36:19.984;223.0;2064.0
19:36:20.024;141.0;-2716.0
19:36:20.064;91.0;-793.0
19:36:20.104;286.0;248.0
19:36:20.144;487.0;843.0
19:36:20.184;942.0;1078.0
19:36:20.224;1196.0;881.0
19:36:20.264;688.0;547.0
19:36:20.304;-127.0;239.0
19:36:20.344;-553.0;57.0
19:36:20.384;-682.0;-27.0
19:36:20.424;-595.0;-16.0
19:36:20.464;-468.0;-28.0
19:36:20.504;-385.0;-127.0
19:36:20.544;-335.0;-156.0
19:36:20.584;-363.0;-251.0
19:36:20.624;-305.0;-234.0
19:36:20.664;-220.0;-416.0
19:36:20.704;-402.0;-400.0
19:36:20.744;-438.0;-350.0
19:36:20.784;1919.0;-2001.0
19:36:20.824;-16.0;-1804.0
19:36:20.864;-260.0;-289.0
19:36:20.904;-149.0;519.0
19:36:20.944;222.0;972.0
19:36:20.984;902.0;1049.0
19:36:21.024;1101.0;760.0
19:36:21.064;650.0;364.0
19:36:21.104;375.0;130.0
19:36:21.144;297.0;63.0
19:36:21.184;358.0;60.0
19:36:21.224;399.0;2.0
19:36:21.264;387.0;-29.0
19:36:21.304;192.0;-111.0
19:36:21.344;49.0;-119.0
19:36:21.384;-44.0;-163.0
19:36:21.424;1.0;-110.0
19:36:21.464;307.0;643.0
19:36:21.504;95.0;233.0
19:36:21.544;15.0;40.0
19:36:21.584;372.0;1538.0
19:36:21.624;258.0;-1784.0
19:36:21.664;133.0;-487.0
19:36:21.704;81.0;260.0
19:36:21.744;273.0;722.0
19:36:21.784;810.0;818.0
19:36:21.824;1089.0;542.0
19:36:21.864;618.0;155.0
19:36:21.904;207.0;-52.0
19:36:21.944;83.0;-162.0
19:36:21.984;58.0;-215.0
19:36:22.024;159.0;-272.0
19:36:22.064;118.0;-331.0
19:36:22.104;42.0;-370.0
19:36:22.144;-5.0;-419.0
19:36:22.184;5.0;-395.0
19:36:22.224;56.0;-354.0
19:36:22.264;215.0;-298.0
19:36:22.304;-3.0;-241.0
19:36:22.344;-103.0;-244.0
19:36:22.384;-263.0;1734.0
19:36:22.424;128.0;-2237.0
19:36:22.464;-69.0;-625.0
19:36:22.504;-114.0;304.0
19:36:22.544;46.0;784.0
19:36:22.584;571.0;939.0
19:36:22.624;1034.0;759.0
19:36:22.664;583.0;495.0
19:36:22.704;-151.0;254.0
19:36:22.744;-508.0;47.0
19:36:22.784;-604.0;-28.0
19:36:22.824;-523.0;-93.0
19:36:22.864;-493.0;-107.0
19:36:22.904;-492.0;-135.0
19:36:22.944;-558.0;-49.0
19:36:22.984;-655.0;-26.0
19:36:23.024;-766.0;-95.0
19:36:23.064;-543.0;24.0
19:36:23.104;-587.0;-6.0
19:36:23.144;-670.0;-190.0
19:36:23.184;-275.0;1341.0
19:36:23.224;-49.0;-3143.0
19:36:23.264;-213.0;-1158.0
19:36:23.304;26.0;-21.0
19:36:27.725;363.0;578.0
19:36:27.765;1242.0;1357.0
19:36:27.805;981.0;563.0
19:36:27.845;388.0;74.0
19:36:27.885;-5.0;3.0
19:36:27.925;-77.0;-2.0
19:36:27.965;-22.0;850.0
19:36:28.005;62.0;485.0
19:36:28.045;129.0;389.0
19:36:28.085;17.0;246.0
19:36:28.125;66.0;217.0
19:36:28.165;4.0;453.0
19:36:28.205;112.0;31.0
19:36:28.245;-152.0;-82.0
19:36:28.285;-213.0;-252.0
19:36:28.325;420.0;638.0
19:36:28.365;-202.0;-1711.0
19:36:28.405;-361.0;-578.0
19:36:28.445;-313.0;105.0
19:36:28.485;-56.0;524.0
19:36:28.525;504.0;560.0
19:36:28.565;724.0;295.0
19:36:28.605;50.0;-12.0
19:36:28.645;-517.0;-250.0
19:36:28.685;-776.0;-357.0
19:36:28.725;-757.0;-422.0
19:36:28.765;-620.0;-461.0
19:36:28.805;-469.0;-458.0
19:36:28.845;-462.0;-439.0
19:36:28.885;-464.0;-363.0
19:36:28.925;-438.0;-268.0
19:36:28.965;-160.0;-40.0
19:36:29.005;-83.0;-106.0
19:36:29.045;-197.0;-127.0
19:36:29.085;-210.0;132.0
19:36:29.125;3984.0;-4661.0
19:36:29.165;1056.0;-2290.0
19:36:29.205;91.0;-221.0
19:36:29.245;-214.0;876.0
19:36:29.285;1.0;1445.0
19:36:29.325;625.0;1448.0
19:36:29.365;656.0;1149.0
19:36:29.405;86.0;839.0
19:36:29.445;-173.0;591.0
19:36:29.485;-278.0;489.0
19:36:29.525;-211.0;388.0
19:36:29.565;-61.0;280.0
19:36:29.605;-23.0;184.0
19:36:29.645;-61.0;74.0
19:36:29.685;-82.0;-37.0
19:36:29.725;-111.0;-107.0
19:36:29.765;-186.0;-154.0
19:36:29.805;-192.0;-76.0
19:36:29.845;60.0;-162.0
19:36:29.885;-85.0;-161.0
19:36:29.925;-151.0;-186.0
19:36:29.965;-144.0;1511.0
19:36:30.005;-13.0;-1905.0
19:36:30.045;-110.0;-479.0
19:36:30.085;-56.0;386.0
19:36:30.125;178.0;877.0
19:36:30.165;745.0;1095.0
19:36:30.205;1100.0;819.0
19:36:30.245;454.0;492.0
19:36:30.285;-141.0;244.0
19:36:30.325;-479.0;86.0
19:36:30.365;-595.0;5.0
19:36:30.405;-562.0;-57.0
19:36:30.445;-524.0;-140.0
19:36:30.485;-479.0;-178.0
19:36:30.525;-514.0;-211.0
19:36:30.565;-576.0;-234.0
19:36:30.605;-560.0;-299.0
19:36:30.645;-580.0;-332.0
19:36:30.685;-336.0;-110.0
19:36:30.725;-300.0;-304.0
19:36:30.765;-550.0;-383.0
19:36:30.805;-641.0;-138.0
19:36:30.845;2699.0;-3499.0
19:36:30.885;76.0;-2362.0
19:36:30.925;-495.0;-536.0
19:36:30.965;-595.0;488.0
19:36:31.005;-325.0;1058.0
19:36:31.045;262.0;1168.0
19:36:31.085;419.0;832.0
19:36:31.125;-187.0;505.0
19:36:31.165;-604.0;308.0
19:36:31.205;-816.0;229.0
19:36:31.245;-790.0;181.0
19:36:31.285;-703.0;146.0
19:36:31.325;-645.0;77.0
19:36:31.365;-631.0;55.0
19:36:31.405;-580.0;35.0
19:36:31.445;-558.0;-16.0
19:36:31.485;-571.0;-60.0
19:36:31.525;-534.0;-106.0
19:36:31.565;-430.0;-125.0
19:36:31.605;-143.0;-57.0
19:36:31.645;-206.0;-188.0
19:36:31.685;-306.0;28.0
19:36:32.666;-158.0;1042.0
19:36:32.706;-544.0;-63.0
19:36:32.746;-292.0;328.0
19:36:32.786;-27.0;631.0
19:36:32.826;404.0;908.0
19:36:32.866;1076.0;830.0
19:36:32.906;1163.0;442.0
19:36:32.946;541.0;57.0
19:36:32.986;79.0;-215.0
19:36:33.026;-137.0;-358.0
19:36:33.066;-92.0;-454.0
19:36:33.106;-17.0;-482.0
19:36:33.146;55.0;-489.0
19:36:33.186;65.0;-485.0
19:36:33.226;48.0;-439.0
19:36:33.266;2.0;-412.0
19:36:33.306;25.0;-415.0
19:36:33.346;-24.0;-377.0
19:36:33.386;130.0;-241.0
19:36:33.426;33.0;-344.0
19:36:33.466;-84.0;-380.0
19:36:33.506;-98.0;518.0
19:36:33.546;3124.0;-4913.0
19:36:33.586;842.0;-2268.0
19:36:33.626;85.0;-338.0
19:36:33.666;-142.0;725.0
19:36:33.706;114.0;1323.0
19:36:33.746;697.0;1290.0
19:36:33.786;506.0;909.0
19:36:33.826;-103.0;540.0
19:36:33.866;-428.0;278.0
19:36:33.906;-573.0;101.0
19:36:33.946;-603.0;-35.0
19:36:33.986;-529.0;-144.0
19:36:34.026;-460.0;-218.0
19:36:34.066;-372.0;-211.0
19:36:34.106;-249.0;-215.0
19:36:34.146;-82.0;-184.0
19:36:34.186;7.0;-160.0
19:36:34.226;46.0;-109.0
19:36:34.266;156.0;53.0
19:36:34.306;306.0;-29.0
19:36:34.346;174.0;-78.0
19:36:34.386;143.0;495.0
19:36:34.426;4906.0;-5152.0
19:36:34.466;1734.0;-2331.0
19:36:34.506;570.0;-154.0
19:36:34.546;140.0;955.0
19:36:34.586;312.0;1591.0
19:36:34.626;848.0;1623.0
19:36:34.666;721.0;1296.0
19:36:34.706;40.0;912.0
19:36:34.746;-396.0;628.0
19:36:34.786;-553.0;434.0
19:36:34.826;-583.0;337.0
19:36:34.866;-534.0;235.0
19:36:34.906;-454.0;114.0
19:36:34.946;-459.0;29.0
19:36:34.986;-423.0;-70.0
19:36:35.026;-360.0;-104.0
19:36:35.066;-268.0;-132.0
19:36:35.106;-150.0;-98.0
19:36:35.146;85.0;-133.0
19:36:35.186;-116.0;-87.0
19:36:35.226;-185.0;-54.0
19:36:35.266;140.0;1217.0
19:36:35.306;-174.0;-1603.0
19:36:35.346;-319.0;-320.0
19:36:35.386;-212.0;416.0
19:36:35.426;166.0;872.0
19:36:35.466;851.0;991.0
19:36:35.506;1323.0;748.0
19:36:35.546;748.0;447.0
19:36:35.586;140.0;163.0
19:36:35.626;-153.0;-24.0
19:36:35.666;-266.0;-52.0
19:36:35.706;-260.0;-66.0
19:36:35.746;-167.0;-133.0
19:36:35.786;-132.0;-179.0
19:36:35.826;-129.0;-240.0
19:36:35.866;-140.0;-281.0
19:36:35.906;-140.0;-294.0
19:36:35.946;117.0;-394.0
19:36:35.986;-110.0;-478.0
19:36:36.026;-295.0;-498.0
19:36:36.066;-275.0;946.0
19:36:36.106;-301.0;-3631.0
19:36:36.146;-428.0;-1527.0
19:36:36.186;-359.0;-191.0
19:36:36.226;-138.0;574.0
19:36:36.266;439.0;994.0
19:36:36.306;1031.0;921.0
19:36:36.346;703.0;637.0
19:36:36.386;99.0;386.0
19:36:36.426;-300.0;209.0
19:36:36.466;-484.0;176.0
19:36:36.506;-544.0;188.0
19:36:36.546;-511.0;158.0
19:36:36.586;-444.0;62.0
19:36:36.626;-362.0;-1.0
19:36:35.072;-288.0;-61.0
19:36:35.112;-286.0;-114.0
19:36:35.152;47.0;-73.0
19:36:35.192;89.0;-64.0
19:36:35.232;146.0;7.0
19:36:35.272;333.0;1567.0
19:36:35.312;458.0;-3262.0
19:36:35.352;393.0;-1057.0
19:36:35.392;456.0;262.0
19:36:35.432;638.0;955.0
19:36:35.472;1115.0;1277.0
19:36:35.512;1594.0;1106.0
19:36:35.552;1152.0;803.0
19:36:35.592;520.0;495.0
19:36:35.632;115.0;284.0
19:36:35.672;-67.0;170.0
19:36:35.712;-82.0;114.0
19:36:35.752;-10.0;55.0
19:36:35.792;-37.0;11.0
19:36:35.832;-90.0;-40.0
19:36:35.872;-102.0;-16.0
19:36:35.912;136.0;88.0
19:36:35.952;362.0;-3.0
19:36:35.992;253.0;-16.0
19:36:36.032;271.0;20.0
19:36:36.072;2262.0;-1226.0
19:36:36.112;591.0;-1461.0
19:36:36.152;243.0;-110.0
19:36:36.192;167.0;587.0
19:36:36.232;362.0;986.0
19:36:36.272;909.0;1024.0
19:36:36.312;930.0;756.0
19:36:36.352;221.0;486.0
19:36:36.392;-276.0;244.0
19:36:36.432;-530.0;125.0
19:36:36.472;-534.0;31.0
19:36:36.512;-472.0;-28.0
19:36:36.552;-456.0;-76.0
19:36:36.592;-484.0;-137.0
19:36:36.632;-487.0;-176.0
19:36:36.672;-425.0;-148.0
19:36:36.712;-138.0;-261.0
19:36:36.752;-380.0;-309.0
19:36:36.792;-520.0;-323.0
19:36:36.832;-476.0;1308.0
19:36:36.872;-395.0;-2158.0
19:36:36.912;-509.0;-776.0
19:36:36.952;-415.0;49.0
19:36:36.992;-147.0;527.0
19:36:37.032;495.0;738.0
19:36:37.072;904.0;501.0
19:36:37.112;300.0;252.0
19:36:37.152;-300.0;78.0
19:36:37.192;-631.0;-26.0
19:36:37.232;-737.0;-93.0
19:36:37.272;-657.0;-117.0
19:36:37.312;-540.0;-141.0
19:36:37.352;-535.0;-183.0
19:36:37.392;-498.0;-194.0
19:36:37.432;-426.0;-156.0
19:36:37.472;-299.0;-270.0
19:36:37.512;-601.0;-293.0
19:36:37.552;-818.0;-378.0
19:36:37.592;675.0;-1164.0
19:36:37.632;-793.0;-1953.0
19:36:37.672;-969.0;-643.0
19:36:37.712;-841.0;87.0
19:36:37.752;-367.0;633.0
19:36:37.792;490.0;795.0
19:36:37.832;864.0;649.0
19:36:37.872;392.0;421.0
19:36:37.912;42.0;237.0
19:36:37.952;-99.0;194.0
19:36:37.992;-38.0;202.0
19:36:38.032;143.0;192.0
19:36:38.072;188.0;165.0
19:36:38.112;217.0;145.0
19:36:38.152;232.0;181.0
19:36:38.192;223.0;158.0
19:36:38.232;480.0;345.0
19:36:38.272;420.0;273.0
19:36:38.312;317.0;193.0
19:36:38.352;314.0;357.0
19:36:38.392;4415.0;-4278.0
19:36:38.432;1868.0;-2009.0
19:36:38.472;934.0;-12.0
19:36:38.512;603.0;888.0
19:36:38.552;637.0;1295.0
19:36:38.592;1008.0;1162.0
19:36:38.632;676.0;822.0
19:36:38.672;-247.0;471.0
19:36:38.712;-801.0;175.0
19:36:38.752;-1155.0;68.0
19:36:38.792;-1173.0;-62.0
19:36:38.832;-1040.0;-131.0
19:36:38.872;-868.0;-189.0
19:36:38.912;-961.0;-212.0
19:36:38.952;-999.0;-266.0
19:36:38.992;-755.0;-173.0
19:36:39.032;-797.0;-327.0
19:36:45.274;-918.0;-396.0
19:36:45.314;3381.0;-4837.0
19:36:45.354;174.0;-2255.0
19:36:45.394;-778.0;-496.0
19:36:45.434;-1049.0;460.0
19:36:45.474;-770.0;979.0
19:36:45.514;-138.0;980.0
19:36:45.554;-191.0;864.0
19:36:45.594;-742.0;470.0
19:36:45.634;-1044.0;255.0
19:36:45.674;-1102.0;201.0
19:36:45.714;-997.0;205.0
19:36:45.754;-855.0;205.0
19:36:45.794;-762.0;94.0
19:36:45.834;-755.0;36.0
19:36:45.874;-716.0;-2.0
19:36:45.914;-627.0;-25.0
19:36:45.954;-300.0;-73.0
19:36:45.994;-398.0;-131.0
19:36:46.034;-568.0;-154.0
19:36:46.074;-660.0;1845.0
19:36:46.114;-496.0;-3256.0
19:36:46.154;-605.0;-1226.0
19:36:46.194;-543.0;21.0
19:36:46.234;-311.0;736.0
19:36:46.274;243.0;1084.0
19:36:46.314;866.0;919.0
19:36:46.354;621.0;568.0
19:36:46.394;81.0;297.0
19:36:46.434;-183.0;174.0
19:36:46.474;-316.0;159.0
19:36:46.514;-310.0;139.0
19:36:46.554;-213.0;99.0
19:36:46.594;-224.0;105.0
19:36:46.634;-198.0;70.0
19:36:46.674;-135.0;8.0
19:36:46.714;-141.0;-17.0
19:36:46.754;200.0;-17.0
19:36:46.794;73.0;-64.0
19:36:46.834;-16.0;-85.0
19:36:46.874;68.0;1293.0
19:36:46.914;16.0;-3446.0
19:36:46.954;-62.0;-1343.0
19:36:46.994;49.0;-40.0
19:36:47.034;269.0;620.0
19:36:47.074;822.0;930.0
19:36:47.114;1388.0;775.0
19:36:47.154;983.0;532.0
19:36:47.194;377.0;256.0
19:36:47.234;19.0;148.0
19:36:47.274;-94.0;64.0
19:36:47.314;-14.0;22.0
19:36:47.354;60.0;11.0
19:36:47.394;122.0;546.0
19:36:47.434;173.0;237.0
19:36:47.474;179.0;75.0
19:36:47.514;212.0;9.0
19:36:47.554;171.0;609.0
19:36:47.594;433.0;324.0
19:36:47.634;328.0;26.0
19:36:47.674;145.0;-106.0
19:36:47.714;214.0;796.0
19:36:47.754;2424.0;-4520.0
19:36:47.794;682.0;-2065.0
19:36:47.834;164.0;-302.0
19:36:47.874;87.0;599.0
19:36:47.914;442.0;1038.0
19:36:47.954;951.0;1022.0
19:36:47.994;721.0;734.0
19:36:48.034;40.0;432.0
19:36:48.074;-327.0;223.0
19:36:48.114;-459.0;116.0
19:36:48.154;-473.0;64.0
19:36:48.194;-407.0;14.0
19:36:48.234;-377.0;10.0
19:36:48.274;-358.0;0.0
19:36:48.314;-365.0;1.0
19:36:48.354;-352.0;53.0
19:36:48.394;-327.0;85.0
19:36:48.434;-60.0;214.0
19:36:48.474;-49.0;104.0
19:36:48.514;-199.0;79.0
19:36:48.554;-45.0;1076.0
19:36:48.594;2356.0;-4275.0
19:36:48.634;508.0;-1867.0
19:36:48.674;-67.0;-114.0
19:36:48.714;-193.0;759.0
19:36:48.754;121.0;1168.0
19:36:48.794;609.0;1076.0
19:36:48.834;301.0;777.0
19:36:48.874;-374.0;487.0
19:36:48.914;-745.0;267.0
19:36:48.954;-872.0;171.0
19:36:48.994;-845.0;133.0
19:36:49.034;-688.0;118.0
19:36:49.074;-580.0;75.0
19:36:49.114;-497.0;44.0
19:36:49.154;-411.0;2.0
19:36:49.194;-406.0;-15.0
19:36:49.234;-130.0;181.0
19:36:51.608;-105.0;73.0
19:36:51.648;-176.0;33.0
19:36:51.688;2470.0;-2305.0
19:36:51.728;351.0;-1781.0
19:36:51.768;-57.0;374.0
19:36:51.808;-145.0;859.0
19:36:51.848;129.0;1106.0
19:36:51.888;732.0;2173.0
19:36:51.928;763.0;1213.0
19:36:51.968;51.0;821.0
19:36:52.008;-471.0;276.0
19:36:52.048;-671.0;28.0
19:36:52.088;-711.0;-109.0
19:36:52.128;-628.0;-148.0
19:36:52.168;-524.0;602.0
19:36:52.208;-428.0;111.0
19:36:52.248;-398.0;-97.0
19:36:52.288;-404.0;-197.0
19:36:52.328;-130.0;-106.0
19:36:52.368;-209.0;229.0
19:36:52.408;-283.0;-102.0
19:36:52.448;-63.0;874.0
19:36:52.488;464.0;-4079.0
19:36:52.528;-194.0;-1796.0
19:36:52.568;-184.0;-187.0
19:36:52.608;-47.0;565.0
19:36:52.648;405.0;970.0
19:36:52.688;950.0;873.0
19:36:52.728;651.0;541.0
19:36:52.768;-31.0;298.0
19:36:52.808;-425.0;127.0
19:36:52.848;-599.0;82.0
19:36:52.888;-585.0;67.0
19:36:52.928;-527.0;67.0
19:36:52.968;-522.0;78.0
19:36:53.008;-446.0;65.0
19:36:53.048;-383.0;53.0
19:36:53.088;-359.0;94.0
19:36:53.128;-47.0;0.0
19:36:53.168;-208.0;24.0
19:36:53.208;-290.0;41.0
19:36:53.248;99.0;1470.0
19:36:53.288;-162.0;-1699.0
19:36:53.328;-288.0;-389.0
19:36:53.368;-219.0;362.0
19:36:53.408;54.0;784.0
19:36:53.448;708.0;905.0
19:36:53.488;1089.0;697.0
19:36:53.528;536.0;399.0
19:36:53.568;-20.0;163.0
19:36:53.608;-330.0;17.0
19:36:53.648;-377.0;-73.0
19:36:53.688;-310.0;-104.0
19:36:53.728;-230.0;-115.0
19:36:53.768;-184.0;-106.0
19:36:53.808;-190.0;-138.0
19:36:53.848;-202.0;-113.0
19:36:53.888;27.0;127.0
19:36:53.928;-4.0;-5.0
19:36:53.968;-190.0;-86.0
19:36:54.008;-158.0;425.0
19:36:54.048;3962.0;-4680.0
19:36:54.088;1212.0;-2234.0
19:36:54.128;281.0;-222.0
19:36:54.168;-47.0;800.0
19:36:54.208;200.0;1298.0
19:36:54.248;801.0;1361.0
19:36:54.288;638.0;1084.0
19:36:54.328;66.0;807.0
19:36:54.368;-368.0;615.0
19:36:54.408;-480.0;465.0
19:36:54.448;-441.0;370.0
19:36:54.488;-315.0;286.0
19:36:54.528;-249.0;228.0
19:36:54.568;-197.0;143.0
19:36:54.608;-187.0;70.0
19:36:54.648;34.0;207.0
19:36:54.688;-24.0;73.0
19:36:54.728;-216.0;-12.0
19:36:54.768;-171.0;588.0
19:36:54.808;3695.0;-4440.0
19:36:54.848;852.0;-2145.0
19:36:54.888;-70.0;-352.0
19:36:54.928;-445.0;631.0
19:36:54.968;-224.0;1116.0
19:36:55.008;244.0;1046.0
19:36:55.048;-72.0;735.0
19:36:55.088;-881.0;486.0
19:36:55.128;-1432.0;326.0
19:36:55.168;-1550.0;205.0
19:36:55.208;-1451.0;95.0
19:36:55.248;-1274.0;-1.0
19:36:55.288;-1267.0;-148.0
19:36:55.328;-1302.0;-304.0
19:36:55.368;-1211.0;-357.0
19:36:55.408;-853.0;-430.0
19:36:55.448;-810.0;-446.0
19:36:55.488;-639.0;-367.0
19:36:55.528;1742.0;-1683.0
19:36:55.568;-49.0;-1638.0
19:36:57.854;-136.0;-272.0
19:36:57.894;264.0;787.0
19:36:57.934;1081.0;1131.0
19:36:57.974;1070.0;937.0
19:36:58.014;274.0;641.0
19:36:58.054;-269.0;395.0
19:36:58.094;-627.0;279.0
19:36:58.134;-745.0;147.0
19:36:58.174;-773.0;47.0
19:36:58.214;-643.0;-17.0
19:36:58.254;-579.0;-66.0
19:36:58.294;-452.0;-92.0
19:36:58.334;-50.0;1259.0
19:36:58.374;15.0;466.0
19:36:58.414;-44.0;73.0
19:36:58.454;312.0;1074.0
19:36:58.494;283.0;-3674.0
19:36:58.534;173.0;-1443.0
19:36:58.574;290.0;-30.0
19:36:58.614;510.0;757.0
19:36:58.654;1166.0;1108.0
19:36:58.694;1743.0;1025.0
19:36:58.734;1372.0;780.0
19:36:58.774;675.0;549.0
19:36:58.814;280.0;392.0
19:36:58.854;230.0;316.0
19:36:58.894;334.0;253.0
19:36:58.934;423.0;197.0
19:36:58.974;424.0;150.0
19:36:59.014;412.0;145.0
19:36:59.054;367.0;122.0
19:36:59.094;648.0;116.0
19:36:59.134;460.0;38.0
19:36:59.174;289.0;-38.0
19:36:59.214;270.0;1781.0
19:36:59.254;119.0;-2853.0
19:36:59.294;84.0;-1030.0
19:36:59.334;128.0;45.0
19:36:59.374;298.0;584.0
19:36:59.414;854.0;821.0
19:36:59.454;1303.0;672.0
19:36:59.494;757.0;420.0
19:36:59.534;113.0;218.0
19:36:59.574;-228.0;105.0
19:36:59.614;-324.0;82.0
19:36:59.654;-217.0;64.0
19:36:59.694;-118.0;68.0
19:36:59.734;-128.0;30.0
19:36:59.774;-106.0;3.0
19:36:59.814;-41.0;55.0
19:36:59.854;307.0;-89.0
19:36:59.894;85.0;-52.0
19:36:59.934;20.0;-90.0
19:36:59.974;218.0;1579.0
19:37:00.014;17.0;-1832.0
19:37:00.054;-25.0;-560.0
19:37:00.094;76.0;177.0
19:37:00.134;359.0;582.0
19:37:00.174;1006.0;678.0
19:37:00.214;1360.0;483.0
19:37:00.254;731.0;219.0
19:37:00.294;150.0;-11.0
19:37:00.334;-157.0;-108.0
19:37:00.374;-219.0;-142.0
19:37:00.414;-123.0;-104.0
19:37:00.454;-46.0;-96.0
19:37:00.494;-93.0;-128.0
19:37:00.534;-142.0;-128.0
19:37:00.574;9.0;20.0
19:37:00.614;60.0;-87.0
19:37:00.654;-127.0;-127.0
19:37:00.694;-150.0;97.0
19:37:00.734;3516.0;-4066.0
19:37:00.774;944.0;-2169.0
19:37:00.814;117.0;-269.0
19:37:00.854;-192.0;660.0
19:37:00.894;64.0;1146.0
19:37:00.934;637.0;1140.0
19:37:00.974;539.0;918.0
19:37:01.014;-174.0;653.0
19:37:01.054;-652.0;438.0
19:37:01.094;-790.0;328.0
19:37:01.134;-676.0;214.0
19:37:01.174;-539.0;145.0
19:37:01.214;-494.0;65.0
19:37:01.254;-517.0;-23.0
19:37:01.294;-399.0;-24.0
19:37:01.334;-171.0;-108.0
19:37:01.374;-282.0;-156.0
19:37:01.414;-225.0;-94.0
19:37:01.454;203.0;1281.0
19:37:01.494;-147.0;-1680.0
19:37:01.534;-185.0;-245.0
19:37:01.574;-152.0;344.0
19:37:01.614;56.0;755.0
19:37:01.654;631.0;788.0
19:37:01.694;831.0;543.0
19:37:01.734;90.0;272.0
19:37:01.774;-504.0;59.0
19:37:01.814;-772.0;-34.0
19:37:00.284;-729.0;-77.0
19:37:00.324;-555.0;102.0
19:37:00.364;-582.0;-65.0
19:37:00.404;-396.0;-28.0
19:37:00.444;-326.0;-169.0
19:37:00.484;-535.0;552.0
19:37:00.524;-587.0;108.0
19:37:00.564;2056.0;-2246.0
19:37:00.604;-22.0;-1831.0
19:37:00.644;-439.0;-409.0
19:37:00.684;-499.0;1110.0
19:37:00.724;-143.0;1009.0
19:37:00.764;517.0;778.0
19:37:00.804;568.0;478.0
19:37:00.844;-127.0;185.0
19:37:00.884;-605.0;665.0
19:37:00.924;-711.0;187.0
19:37:00.964;-606.0;-70.0
19:37:01.004;-478.0;-159.0
19:37:01.044;-420.0;-183.0
19:37:01.084;-191.0;316.0
19:37:01.124;-200.0;-61.0
19:37:01.164;-316.0;-219.0
19:37:01.204;-241.0;282.0
19:37:01.244;3609.0;-4695.0
19:37:01.284;967.0;-2292.0
19:37:01.324;98.0;-439.0
19:37:01.364;-164.0;497.0
19:37:01.404;173.0;969.0
19:37:01.444;739.0;921.0
19:37:01.484;369.0;866.0
19:37:01.524;-336.0;615.0
19:37:01.564;-763.0;420.0
19:37:01.604;-885.0;324.0
19:37:01.644;-751.0;270.0
19:37:01.684;-600.0;190.0
19:37:01.724;-527.0;89.0
19:37:01.764;-292.0;194.0
19:37:01.804;-285.0;52.0
19:37:01.844;-401.0;-101.0
19:37:01.884;-402.0;247.0
19:37:01.924;3507.0;-4526.0
19:37:01.964;913.0;-2235.0
19:37:02.004;11.0;-361.0
19:37:02.044;-226.0;525.0
19:37:02.084;136.0;973.0
19:37:02.124;700.0;983.0
19:37:02.164;437.0;808.0
19:37:02.204;-254.0;616.0
19:37:02.244;-721.0;427.0
19:37:02.284;-816.0;378.0
19:37:02.324;-704.0;297.0
19:37:02.364;-585.0;266.0
19:37:02.404;-565.0;193.0
19:37:02.444;-590.0;163.0
19:37:02.484;-247.0;262.0
19:37:02.524;-348.0;136.0
19:37:02.564;-457.0;60.0
19:37:02.604;-102.0;1105.0
19:37:02.644;53.0;-3622.0
19:37:02.684;-146.0;-1391.0
19:37:02.724;-81.0;-46.0
19:37:02.764;124.0;638.0
19:37:02.804;693.0;900.0
19:37:02.844;1187.0;802.0
19:37:02.884;742.0;609.0
19:37:02.924;103.0;396.0
19:37:02.964;-212.0;257.0
19:37:03.004;-306.0;178.0
19:37:03.044;-257.0;145.0
19:37:03.084;-242.0;95.0
19:37:03.124;-293.0;37.0
19:37:03.164;-431.0;-10.0
19:37:03.204;-442.0;-88.0
19:37:03.244;-392.0;-92.0
19:37:03.284;-429.0;-242.0
19:37:03.324;-823.0;-293.0
19:37:03.364;-932.0;-300.0
19:37:03.404;2173.0;-3637.0
19:37:03.444;221.0;-2134.0
19:37:03.484;-134.0;-211.0
19:37:03.524;-5.0;798.0
19:37:03.564;400.0;1302.0
19:37:03.604;1076.0;1333.0
19:37:03.644;996.0;1128.0
19:37:03.684;360.0;776.0
19:37:03.724;-286.0;491.0
19:37:03.764;-625.0;294.0
19:37:03.804;-801.0;214.0
19:37:03.844;-686.0;139.0
19:37:03.884;-651.0;120.0
19:37:03.924;-506.0;101.0
19:37:03.964;-325.0;139.0
19:37:04.004;-231.0;135.0
19:37:04.044;52.0;236.0
19:37:04.084;282.0;188.0
19:37:04.124;277.0;259.0
19:37:04.164;388.0;358.0
19:37:04.204;3460.0;-2911.0
19:37:04.244;1462.0;-1455.0
19:37:04.037;-918.0;-396.0
19:37:04.077;3381.0;-4837.0
19:37:04.117;174.0;-2255.0
19:37:04.157;-778.0;-496.0
19:37:04.197;-1049.0;460.0
19:37:04.237;-770.0;979.0
19:37:04.277;-138.0;980.0
19:37:04.317;-191.0;864.0
19:37:04.357;-742.0;470.0
19:37:04.397;-1044.0;255.0
19:37:04.437;-1102.0;201.0
19:37:04.477;-997.0;205.0
19:37:04.517;-855.0;205.0
19:37:04.557;-762.0;94.0
19:37:04.597;-755.0;36.0
19:37:04.637;-716.0;-2.0
19:37:04.677;-627.0;-25.0
19:37:04.717;-300.0;-73.0
19:37:04.757;-398.0;-131.0
19:37:04.797;-568.0;-154.0
19:37:04.837;-660.0;1845.0
19:37:04.877;-496.0;-3256.0
19:37:04.917;-605.0;-1226.0
19:37:04.957;-543.0;21.0
19:37:04.997;-311.0;736.0
19:37:05.037;243.0;1084.0
19:37:05.077;866.0;919.0
19:37:05.117;621.0;568.0
19:37:05.157;81.0;297.0
19:37:05.197;-183.0;174.0
19:37:05.237;-316.0;159.0
19:37:05.277;-310.0;139.0
19:37:05.317;-213.0;99.0
19:37:05.357;-224.0;105.0
19:37:05.397;-198.0;70.0
19:37:05.437;-135.0;8.0
19:37:05.477;-141.0;-17.0
19:37:05.517;200.0;-17.0
19:37:05.557;73.0;-64.0
19:37:05.597;-16.0;-85.0
19:37:05.637;68.0;1293.0
19:37:05.677;16.0;-3446.0
19:37:05.717;-62.0;-1343.0
19:37:05.757;49.0;-40.0
19:37:05.797;269.0;620.0
19:37:05.837;822.0;930.0
19:37:05.877;1388.0;775.0
19:37:05.917;983.0;532.0
19:37:05.957;377.0;256.0
19:37:05.997;19.0;148.0
19:37:06.037;-94.0;64.0
19:37:06.077;-14.0;22.0
19:37:06.117;60.0;11.0
19:37:06.157;122.0;546.0
19:37:06.197;173.0;237.0
19:37:06.237;179.0;75.0
19:37:06.277;212.0;9.0
19:37:06.317;171.0;609.0
19:37:06.357;433.0;324.0
19:37:06.397;328.0;26.0
19:37:06.437;145.0;-106.0
19:37:06.477;214.0;796.0
19:37:06.517;2424.0;-4520.0
19:37:06.557;682.0;-2065.0
19:37:06.597;164.0;-302.0
19:37:06.637;87.0;599.0
19:37:06.677;442.0;1038.0
19:37:06.717;951.0;1022.0
19:37:06.757;721.0;734.0
19:37:06.797;40.0;432.0
19:37:06.837;-327.0;223.0
19:37:06.877;-459.0;116.0
19:37:06.917;-473.0;64.0
19:37:06.957;-407.0;14.0
19:37:06.997;-377.0;10.0
19:37:07.037;-358.0;0.0
19:37:07.077;-365.0;1.0
19:37:07.117;-352.0;53.0
19:37:07.157;-327.0;85.0
19:37:07.197;-60.0;214.0
19:37:07.237;-49.0;104.0
19:37:07.277;-199.0;79.0
19:37:07.317;-45.0;1076.0
19:37:07.357;2356.0;-4275.0
19:37:07.397;508.0;-1867.0
19:37:07.437;-67.0;-114.0
19:37:07.477;-193.0;759.0
19:37:07.517;121.0;1168.0
19:37:07.557;609.0;1076.0
19:37:07.597;301.0;777.0
19:37:07.637;-374.0;487.0
19:37:07.677;-745.0;267.0
19:37:07.717;-872.0;171.0
19:37:07.757;-845.0;133.0
19:37:07.797;-688.0;118.0
19:37:07.837;-580.0;75.0
19:37:07.877;-497.0;44.0
19:37:07.917;-411.0;2.0
19:37:07.957;-406.0;-15.0
19:37:07.997;-130.0;181.0
19:37:08.127;-105.0;73.0
19:37:08.167;-176.0;33.0
19:37:08.207;2470.0;-2305.0
19:37:08.247;351.0;-1781.0
19:37:08.287;-57.0;374.0
19:37:08.327;-145.0;859.0
19:37:08.367;129.0;1106.0
19:37:08.407;732.0;2173.0
19:37:08.447;763.0;1213.0
19:37:08.487;51.0;821.0
19:37:08.527;-471.0;276.0
19:37:08.567;-671.0;28.0
19:37:08.607;-711.0;-109.0
19:37:08.647;-628.0;-148.0
19:37:08.687;-524.0;602.0
19:37:08.727;-428.0;111.0
19:37:08.767;-398.0;-97.0
19:37:08.807;-404.0;-197.0
19:37:08.847;-130.0;-106.0
19:37:08.887;-209.0;229.0
19:37:08.927;-283.0;-102.0
19:37:08.967;-63.0;874.0
19:37:09.007;464.0;-4079.0
19:37:09.047;-194.0;-1796.0
19:37:09.087;-184.0;-187.0
19:37:09.127;-47.0;565.0
19:37:09.167;405.0;970.0
19:37:09.207;950.0;873.0
19:37:09.247;651.0;541.0
19:37:09.287;-31.0;298.0
19:37:09.327;-425.0;127.0
19:37:09.367;-599.0;82.0
19:37:09.407;-585.0;67.0
19:37:09.447;-527.0;67.0
19:37:09.487;-522.0;78.0
19:37:09.527;-446.0;65.0
19:37:09.567;-383.0;53.0
19:37:09.607;-359.0;94.0
19:37:09.647;-47.0;0.0
19:37:09.687;-208.0;24.0
19:37:09.727;-290.0;41.0
19:37:09.767;99.0;1470.0
19:37:09.807;-162.0;-1699.0
19:37:09.847;-288.0;-389.0
19:37:09.887;-219.0;362.0
19:37:09.927;54.0;784.0
19:37:09.967;708.0;905.0
19:37:10.007;1089.0;697.0
19:37:10.047;536.0;399.0
19:37:10.087;-20.0;163.0
19:37:10.127;-330.0;17.0
19:37:10.167;-377.0;-73.0
19:37:10.207;-310.0;-104.0
19:37:10.247;-230.0;-115.0
19:37:10.287;-184.0;-106.0
19:37:10.327;-190.0;-138.0
19:37:10.367;-202.0;-113.0
19:37:10.407;27.0;127.0
19:37:10.447;-4.0;-5.0
19:37:10.487;-190.0;-86.0
19:37:10.527;-158.0;425.0
19:37:10.567;3962.0;-4680.0
19:37:10.607;1212.0;-2234.0
19:37:10.647;281.0;-222.0
19:37:10.687;-47.0;800.0
19:37:10.727;200.0;1298.0
19:37:10.767;801.0;1361.0
19:37:10.807;638.0;1084.0
19:37:10.847;66.0;807.0
19:37:10.887;-368.0;615.0
19:37:10.927;-480.0;465.0
19:37:10.967;-441.0;370.0
19:37:11.007;-315.0;286.0
19:37:11.047;-249.0;228.0
19:37:11.087;-197.0;143.0
19:37:11.127;-187.0;70.0
19:37:11.167;34.0;207.0
19:37:11.207;-24.0;73.0
19:37:11.247;-216.0;-12.0
19:37:11.287;-171.0;588.0
19:37:11.327;3695.0;-4440.0
19:37:11.367;852.0;-2145.0
19:37:11.407;-70.0;-352.0
19:37:11.447;-445.0;631.0
19:37:11.487;-224.0;1116.0
19:37:11.527;244.0;1046.0
19:37:11.567;-72.0;735.0
19:37:11.607;-881.0;486.0
19:37:11.647;-1432.0;326.0
19:37:11.687;-1550.0;205.0
19:37:11.727;-1451.0;95.0
19:37:11.767;-1274.0;-1.0
19:37:11.807;-1267.0;-148.0
19:37:11.847;-1302.0;-304.0
19:37:11.887;-1211.0;-357.0
19:37:11.927;-853.0;-430.0
19:37:11.967;-810.0;-446.0
19:37:12.007;-639.0;-367.0
19:37:12.047;1742.0;-1683.0
19:37:12.087;-49.0;-1638.0
19:37:15.474;-136.0;-272.0
19:37:15.514;264.0;787.0
19:37:15.554;1081.0;1131.0
19:37:15.594;1070.0;937.0
19:37:15.634;274.0;641.0
19:37:15.674;-269.0;395.0
19:37:15.714;-627.0;279.0
19:37:15.754;-745.0;147.0
19:37:15.794;-773.0;47.0
19:37:15.834;-643.0;-17.0
19:37:15.874;-579.0;-66.0
19:37:15.914;-452.0;-92.0
19:37:15.954;-50.0;1259.0
19:37:15.994;15.0;466.0
19:37:16.034;-44.0;73.0
19:37:16.074;312.0;1074.0
19:37:16.114;283.0;-3674.0
19:37:16.154;173.0;-1443.0
19:37:16.194;290.0;-30.0
19:37:16.234;510.0;757.0
19:37:16.274;1166.0;1108.0
19:37:16.314;1743.0;1025.0
19:37:16.354;1372.0;780.0
19:37:16.394;675.0;549.0
19:37:16.434;280.0;392.0
19:37:16.474;230.0;316.0
19:37:16.514;334.0;253.0
19:37:16.554;423.0;197.0
19:37:16.594;424.0;150.0
19:37:16.634;412.0;145.0
19:37:16.674;367.0;122.0
19:37:16.714;648.0;116.0
19:37:16.754;460.0;38.0
19:37:16.794;289.0;-38.0
19:37:16.834;270.0;1781.0
19:37:16.874;119.0;-2853.0
19:37:16.914;84.0;-1030.0
19:37:16.954;128.0;45.0
19:37:16.994;298.0;584.0
19:37:17.034;854.0;821.0
19:37:17.074;1303.0;672.0
19:37:17.114;757.0;420.0
19:37:17.154;113.0;218.0
19:37:17.194;-228.0;105.0
19:37:17.234;-324.0;82.0
19:37:17.274;-217.0;64.0
19:37:17.314;-118.0;68.0
19:37:17.354;-128.0;30.0
19:37:17.394;-106.0;3.0
19:37:17.434;-41.0;55.0
19:37:17.474;307.0;-89.0
19:37:17.514;85.0;-52.0
19:37:17.554;20.0;-90.0
19:37:17.594;218.0;1579.0
19:37:17.634;17.0;-1832.0
19:37:17.674;-25.0;-560.0
19:37:17.714;76.0;177.0
19:37:17.754;359.0;582.0
19:37:17.794;1006.0;678.0
19:37:17.834;1360.0;483.0
19:37:17.874;731.0;219.0
19:37:17.914;150.0;-11.0
19:37:17.954;-157.0;-108.0
19:37:17.994;-219.0;-142.0
19:37:18.034;-123.0;-104.0
19:37:18.074;-46.0;-96.0
19:37:18.114;-93.0;-128.0
19:37:18.154;-142.0;-128.0
19:37:18.194;9.0;20.0
19:37:18.234;60.0;-87.0
19:37:18.274;-127.0;-127.0
19:37:18.314;-150.0;97.0
19:37:18.354;3516.0;-4066.0
19:37:18.394;944.0;-2169.0
19:37:18.434;117.0;-269.0
19:37:18.474;-192.0;660.0
19:37:18.514;64.0;1146.0
19:37:18.554;637.0;1140.0
19:37:18.594;539.0;918.0
19:37:18.634;-174.0;653.0
19:37:18.674;-652.0;438.0
19:37:18.714;-790.0;328.0
19:37:18.754;-676.0;214.0
19:37:18.794;-539.0;145.0
19:37:18.834;-494.0;65.0
19:37:18.874;-517.0;-23.0
19:37:18.914;-399.0;-24.0
19:37:18.954;-171.0;-108.0
19:37:18.994;-282.0;-156.0
19:37:19.034;-225.0;-94.0
19:37:19.074;203.0;1281.0
19:37:19.114;-147.0;-1680.0
19:37:19.154;-185.0;-245.0
19:37:19.194;-152.0;344.0
19:37:19.234;56.0;755.0
19:37:19.274;631.0;788.0
19:37:19.314;831.0;543.0
19:37:19.354;90.0;272.0
19:37:19.394;-504.0;59.0
19:37:19.434;-772.0;-34.0
19:37:32.548;831.0;259.0
19:37:32.588;754.0;937.0
19:37:32.628;1042.0;1268.0
19:37:32.668;951.0;979.0
19:37:32.708;51.0;679.0
19:37:32.748;-728.0;407.0
19:37:32.788;-1160.0;259.0
19:37:32.828;-1265.0;697.0
19:37:32.868;-1288.0;313.0
19:37:32.908;-1268.0;56.0
19:37:32.948;-1228.0;-76.0
19:37:32.988;-1138.0;-128.0
19:37:33.028;-1101.0;477.0
19:37:33.068;-775.0;193.0
19:37:33.108;-859.0;-187.0
19:37:33.148;-940.0;-354.0
19:37:33.188;-724.0;483.0
19:37:33.228;649.0;-3810.0
19:37:33.268;-508.0;-2006.0
19:37:33.308;-732.0;-597.0
19:37:33.348;-710.0;140.0
19:37:33.388;-259.0;474.0
19:37:33.428;241.0;560.0
19:37:33.468;-72.0;448.0
19:37:33.508;-674.0;59.0
19:37:33.548;-981.0;-121.0
19:37:33.588;-1074.0;-196.0
19:37:33.628;-965.0;-201.0
19:37:33.668;-904.0;-264.0
19:37:33.708;-864.0;-237.0
19:37:33.748;-877.0;-250.0
19:37:33.788;-876.0;-211.0
19:37:33.828;-835.0;-196.0
19:37:33.868;-446.0;-49.0
19:37:33.908;-542.0;-104.0
19:37:33.948;-635.0;-157.0
19:37:33.988;-482.0;1126.0
19:37:34.028;-519.0;-3444.0
19:37:34.068;-504.0;-1295.0
19:37:34.108;-309.0;26.0
19:37:34.148;-29.0;666.0
19:37:34.188;610.0;952.0
19:37:34.228;1185.0;845.0
19:37:34.268;818.0;569.0
19:37:34.308;261.0;313.0
19:37:34.348;-43.0;182.0
19:37:34.388;-161.0;83.0
19:37:34.428;-113.0;15.0
19:37:34.468;-46.0;-48.0
19:37:34.508;4.0;-101.0
19:37:34.548;0.0;-109.0
19:37:34.588;-45.0;-102.0
19:37:34.628;-75.0;1375.0
19:37:34.668;121.0;599.0
19:37:34.708;167.0;338.0
19:37:34.748;-28.0;6.0
19:37:34.788;-67.0;-55.0
19:37:34.828;3487.0;-3864.0
19:37:34.868;989.0;-2240.0
19:37:34.908;252.0;-375.0
19:37:34.948;14.0;577.0
19:37:34.988;291.0;1061.0
19:37:35.028;867.0;1104.0
19:37:35.068;838.0;896.0
19:37:35.108;178.0;633.0
19:37:35.148;-253.0;403.0
19:37:35.188;-382.0;271.0
19:37:35.228;-364.0;158.0
19:37:35.268;-274.0;65.0
19:37:35.308;-223.0;-14.0
19:37:35.348;-201.0;-39.0
19:37:35.388;-189.0;-98.0
19:37:35.428;-161.0;-87.0
19:37:35.468;-165.0;-90.0
19:37:35.508;126.0;-12.0
19:37:35.548;-60.0;-48.0
19:37:35.588;-158.0;-88.0
19:37:35.628;-294.0;1868.0
19:37:35.668;15.0;-2396.0
19:37:35.708;-27.0;-760.0
19:37:35.748;85.0;219.0
19:37:35.788;354.0;754.0
19:37:35.828;950.0;941.0
19:37:35.868;1373.0;814.0
19:37:35.908;824.0;571.0
19:37:35.948;199.0;323.0
19:37:35.988;-153.0;171.0
19:37:36.028;-256.0;82.0
19:37:36.068;-217.0;-3.0
19:37:36.108;-194.0;-67.0
19:37:36.148;-189.0;-65.0
19:37:36.188;-207.0;-144.0
19:37:36.228;-186.0;-195.0
19:37:36.268;18.0;-71.0
19:37:36.308;-23.0;-284.0
19:37:36.348;-167.0;-318.0
19:37:36.388;-121.0;381.0
19:37:36.428;3026.0;-4427.0
19:37:36.468;687.0;-2189.0
19:37:36.508;20.0;-448.0
19:37:37.187;-167.0;472.0
19:37:37.227;455.0;873.0
19:37:37.267;15.0;613.0
19:37:37.307;-564.0;319.0
19:37:37.347;-874.0;151.0
19:37:37.387;-909.0;65.0
19:37:37.427;-845.0;8.0
19:37:37.467;-742.0;-36.0
19:37:37.507;-677.0;826.0
19:37:37.547;-694.0;237.0
19:37:37.587;-666.0;-18.0
19:37:37.627;-467.0;60.0
19:37:37.667;-366.0;-42.0
19:37:37.707;-512.0;-98.0
19:37:37.747;-444.0;357.0
19:37:37.787;3957.0;-4773.0
19:37:37.827;1108.0;-2185.0
19:37:37.867;140.0;-97.0
19:37:37.907;-186.0;958.0
19:37:37.947;69.0;1536.0
19:37:37.987;713.0;1535.0
19:37:38.027;579.0;1217.0
19:37:38.067;-66.0;924.0
19:37:38.107;-479.0;702.0
19:37:38.147;-603.0;582.0
19:37:38.187;-576.0;473.0
19:37:38.227;-491.0;366.0
19:37:38.267;-426.0;259.0
19:37:38.307;-415.0;160.0
19:37:38.347;-373.0;76.0
19:37:38.387;-294.0;54.0
19:37:38.427;-68.0;107.0
19:37:38.467;11.0;6.0
19:37:38.507;-134.0;655.0
19:37:38.547;-124.0;330.0
19:37:38.587;3491.0;-3604.0
19:37:38.627;957.0;-2123.0
19:37:38.667;236.0;-242.0
19:37:38.707;-2.0;719.0
19:37:38.747;239.0;1247.0
19:37:38.787;869.0;1295.0
19:37:38.827;850.0;1054.0
19:37:38.867;97.0;790.0
19:37:38.907;-438.0;563.0
19:37:38.947;-686.0;427.0
19:37:38.987;-735.0;308.0
19:37:39.027;-648.0;226.0
19:37:39.067;-572.0;157.0
19:37:39.107;-521.0;78.0
19:37:39.147;-512.0;1168.0
19:37:39.187;-416.0;395.0
19:37:39.227;-331.0;55.0
19:37:39.267;-213.0;-258.0
19:37:39.307;-331.0;-392.0
19:37:39.347;-407.0;-421.0
19:37:39.387;1239.0;-981.0
19:37:39.427;-313.0;-1687.0
19:37:39.467;-497.0;-441.0
19:37:39.507;-446.0;273.0
19:37:39.547;-149.0;734.0
19:37:39.587;543.0;739.0
19:37:39.627;648.0;513.0
19:37:39.667;-80.0;221.0
19:37:39.707;-644.0;31.0
19:37:39.747;-969.0;-20.0
19:37:39.787;-973.0;-49.0
19:37:39.827;-859.0;-46.0
19:37:39.867;-749.0;-81.0
19:37:39.907;-737.0;-128.0
19:37:39.947;-709.0;-155.0
19:37:39.987;-680.0;-190.0
19:37:40.027;-597.0;-231.0
19:37:40.067;-239.0;-103.0
19:37:40.107;-266.0;-187.0
19:37:40.147;-363.0;-215.0
19:37:40.187;-139.0;863.0
19:37:40.227;862.0;-4312.0
19:37:40.267;98.0;-1824.0
19:37:40.307;-67.0;-204.0
19:37:40.347;75.0;641.0
19:37:40.387;600.0;1110.0
19:37:40.427;1239.0;1028.0
19:37:40.467;895.0;766.0
19:37:40.507;254.0;522.0
19:37:40.547;-129.0;361.0
19:37:40.587;-289.0;316.0
19:37:40.627;-296.0;279.0
19:37:40.667;-236.0;241.0
19:37:40.707;-199.0;207.0
19:37:40.747;-246.0;127.0
19:37:40.787;-252.0;115.0
19:37:40.827;-211.0;93.0
19:37:40.867;-169.0;95.0
19:37:40.907;16.0;156.0
19:37:40.947;119.0;51.0
19:37:40.987;14.0;-30.0
19:37:41.027;5.0;36.0
19:37:41.067;3665.0;-3871.0
19:37:41.107;1148.0;-2209.0
19:37:41.147;368.0;-293.0
19:38:55.518;2428720.0;2427836.0
19:38:55.558;3400143.0;3398978.0
19:38:55.598;3667468.0;3666083.0
19:38:55.638;3604144.0;3602885.0
19:38:55.678;3395392.0;3394279.0
19:38:55.718;3131711.0;3132539.0
19:38:55.758;2856296.0;2852772.0
19:38:55.798;2589544.0;2587938.0
19:38:55.838;2340222.0;2339610.0
19:38:55.878;2111212.0;2110999.0
19:38:55.918;1903169.0;1902556.0
19:38:55.958;1714706.0;1713356.0
19:38:55.998;1543453.0;1542374.0
19:38:56.038;1388840.0;1388173.0
19:38:56.078;1249780.0;1249370.0
19:38:56.118;1124769.0;1124456.0
19:38:56.158;1012332.0;1012020.0
19:38:56.198;911155.0;910819.0
19:38:56.238;820041.0;819705.0
19:38:56.278;738013.0;737718.0
19:38:56.318;664164.0;663971.0
19:38:56.358;597730.0;597596.0
19:38:56.398;538261.0;537905.0
19:38:56.438;484333.0;484057.0
19:38:56.478;435798.0;435603.0
19:38:56.518;392318.0;393996.0
19:38:56.558;353003.0;350092.0
19:38:56.598;317717.0;316601.0
19:38:56.638;286079.0;285930.0
19:38:56.678;257799.0;257972.0
19:38:56.718;232677.0;232508.0
19:38:56.758;210094.0;209143.0
19:38:56.798;188763.0;187931.0
19:38:56.838;169352.0;168933.0
19:38:56.878;152098.0;151906.0
19:38:56.918;136744.0;136655.0
19:38:56.958;123066.0;122995.0
19:38:56.998;110773.0;110646.0
19:38:57.038;99703.0;99527.0
19:38:57.078;89724.0;89576.0
19:38:57.118;80742.0;80624.0
19:38:57.158;72660.0;72612.0
19:38:57.198;65610.0;65577.0
19:38:57.238;59054.0;58926.0
19:38:57.278;52988.0;52994.0
19:38:57.318;47677.0;48031.0
19:38:57.358;47111.0;38159.0
19:38:57.398;39990.0;36333.0
19:38:57.438;35123.0;34451.0
19:38:57.478;31299.0;31993.0
19:38:57.518;28377.0;29387.0
19:38:57.558;26202.0;26538.0
19:38:57.598;23585.0;23709.0
19:38:57.638;20581.0;21106.0
19:38:57.678;18088.0;18845.0
19:38:57.718;16085.0;16879.0
19:38:57.758;14430.0;15161.0
19:38:57.798;13011.0;13606.0
19:38:57.838;11717.0;12239.0
19:38:57.878;10547.0;10987.0
19:38:57.918;9485.0;9852.0
19:38:57.958;8543.0;8884.0
19:38:57.998;7652.0;8009.0
19:38:58.038;7143.0;7306.0
19:38:58.078;6288.0;6519.0
19:38:58.118;5583.0;5971.0
19:38:58.158;5080.0;6909.0
19:38:58.198;4408.0;1538.0
19:38:58.238;3980.0;3153.0
19:38:58.278;3715.0;3936.0
19:38:58.318;3660.0;4232.0
19:38:58.358;3942.0;4149.0
19:38:58.398;4227.0;3628.0
19:38:58.438;3514.0;3030.0
19:38:58.478;2593.0;2505.0
19:38:58.518;1936.0;2109.0
19:38:58.558;1561.0;1818.0
19:38:58.598;1461.0;1556.0
19:38:58.638;1370.0;1359.0
19:38:58.678;1200.0;1167.0
19:38:58.718;1025.0;1040.0
19:38:58.758;844.0;881.0
19:38:58.798;759.0;784.0
19:38:58.838;901.0;784.0
19:38:58.878;638.0;701.0
19:38:58.918;460.0;612.0
19:38:58.958;417.0;2428.0
19:38:58.998;204.0;-2090.0
19:38:59.038;105.0;-357.0
19:38:59.078;192.0;681.0
19:38:59.118;366.0;1206.0
19:38:59.158;934.0;1374.0
19:38:59.198;1395.0;1065.0
19:38:59.238;770.0;735.0
19:38:59.278;49.0;403.0
19:38:59.318;-388.0;270.0
19:38:59.358;-610.0;199.0
19:38:59.398;-600.0;88.0
19:38:59.438;-584.0;22.0
19:38:59.478;-628.0;-63.0
19:38:56.591;-665.0;-80.0
19:38:56.631;-624.0;30.0
19:38:56.671;-312.0;103.0
19:38:56.711;-432.0;81.0
19:38:56.751;-561.0;33.0
19:38:56.791;-539.0;1958.0
19:38:56.831;-374.0;-2169.0
19:38:56.871;-379.0;-591.0
19:38:56.911;-213.0;299.0
19:38:56.951;100.0;831.0
19:38:56.991;759.0;1062.0
19:38:57.031;1296.0;816.0
19:38:57.071;746.0;490.0
19:38:57.111;118.0;245.0
19:38:57.151;-239.0;103.0
19:38:57.191;-379.0;78.0
19:38:57.231;-345.0;29.0
19:38:57.271;-271.0;-38.0
19:38:57.311;-272.0;-113.0
19:38:57.351;-250.0;-189.0
19:38:57.391;-214.0;-196.0
19:38:57.431;-214.0;-192.0
19:38:57.471;-149.0;-175.0
19:38:57.511;86.0;-150.0
19:38:57.551;-40.0;-148.0
19:38:57.591;-111.0;-160.0
19:38:57.631;-82.0;1672.0
19:38:57.671;13.0;-2127.0
19:38:57.711;-23.0;-633.0
19:38:57.751;102.0;247.0
19:38:57.791;401.0;775.0
19:38:57.831;1049.0;1016.0
19:38:57.871;1514.0;811.0
19:38:57.911;915.0;449.0
19:38:57.951;252.0;189.0
19:38:57.991;-78.0;39.0
19:38:58.031;-228.0;-73.0
19:38:58.071;-189.0;-129.0
19:38:58.111;-108.0;-202.0
19:38:58.151;-120.0;-257.0
19:38:58.191;-110.0;-297.0
19:38:58.231;-85.0;-300.0
19:38:58.271;-94.0;-276.0
19:38:58.311;86.0;-212.0
19:38:58.351;187.0;-263.0
19:38:58.391;18.0;-255.0
19:38:58.431;-11.0;-193.0
19:38:58.471;2351.0;-1956.0
19:38:58.511;471.0;-1708.0
19:38:58.551;158.0;-206.0
19:38:58.591;137.0;612.0
19:38:58.631;394.0;1086.0
19:38:58.671;1072.0;1202.0
19:38:58.711;1203.0;948.0
19:38:58.751;446.0;659.0
19:38:58.791;-99.0;441.0
19:38:58.831;-380.0;311.0
19:38:58.871;-445.0;208.0
19:38:58.911;-396.0;164.0
19:38:58.951;-382.0;68.0
19:38:58.991;-390.0;-10.0
19:38:59.031;-399.0;-69.0
19:38:59.071;-382.0;-89.0
19:38:59.111;-273.0;-103.0
19:38:59.151;-66.0;-298.0
19:38:59.191;-262.0;-261.0
19:38:59.231;-311.0;-244.0
19:38:59.271;557.0;383.0
19:38:59.311;-260.0;-1602.0
19:38:59.351;-249.0;-359.0
19:38:59.391;-128.0;349.0
19:38:59.431;259.0;783.0
19:38:59.471;948.0;887.0
19:38:59.511;1296.0;674.0
19:38:59.551;606.0;416.0
19:38:59.591;-22.0;182.0
19:38:59.631;-362.0;60.0
19:38:59.671;-470.0;48.0
19:38:59.711;-395.0;2.0
19:38:59.751;-405.0;-44.0
19:38:59.791;-410.0;-81.0
19:38:59.831;-455.0;-112.0
19:38:59.871;-387.0;-180.0
19:38:59.911;-81.0;-115.0
19:38:59.951;-178.0;-137.0
19:38:59.991;-317.0;-230.0
19:39:00.031;-188.0;1209.0
19:39:00.071;-454.0;-3596.0
19:39:00.111;-328.0;-1433.0
19:39:00.151;-136.0;-119.0
19:39:00.191;134.0;565.0
19:39:00.231;740.0;870.0
19:39:00.271;1351.0;768.0
19:39:00.311;915.0;552.0
19:39:00.351;153.0;731.0
19:39:00.391;-240.0;367.0
19:39:00.431;-398.0;198.0
19:39:00.471;-381.0;333.0
19:39:00.511;-285.0;150.0
19:39:00.551;-326.0;956.0
19:39:03.808;-295.0;334.0
19:39:03.848;-158.0;-37.0
19:39:03.888;-254.0;-167.0
19:39:03.928;-286.0;-220.0
19:39:03.968;2187.0;-2038.0
19:39:04.008;238.0;-1838.0
19:39:04.048;-46.0;-436.0
19:39:04.088;-65.0;323.0
19:39:04.128;241.0;778.0
19:39:04.168;928.0;760.0
19:39:04.208;1024.0;478.0
19:39:04.248;215.0;231.0
19:39:04.288;-348.0;44.0
19:39:04.328;-646.0;1.0
19:39:04.368;-722.0;-63.0
19:39:04.408;-653.0;-96.0
19:39:04.448;-616.0;-119.0
19:39:04.488;-675.0;-130.0
19:39:04.528;-493.0;242.0
19:39:04.568;-454.0;-43.0
19:39:04.608;-615.0;-150.0
19:39:04.648;-703.0;-149.0
19:39:04.688;1766.0;-1856.0
19:39:04.728;-426.0;-1113.0
19:39:04.768;-754.0;-64.0
19:39:04.808;-798.0;540.0
19:39:04.848;-515.0;894.0
19:39:04.888;148.0;882.0
19:39:04.928;296.0;1226.0
19:39:04.968;-414.0;555.0
19:39:05.008;-851.0;151.0
19:39:05.048;-1022.0;-33.0
19:39:05.088;-1032.0;-108.0
19:39:05.128;-806.0;86.0
19:39:05.168;-555.0;-71.0
19:39:05.208;-496.0;-172.0
19:39:05.248;-416.0;-200.0
19:39:05.288;-110.0;-140.0
19:39:05.328;-240.0;196.0
19:39:05.368;-322.0;-82.0
19:39:05.408;-281.0;1707.0
19:39:05.448;-342.0;-2354.0
19:39:05.488;-378.0;-828.0
19:39:05.528;-334.0;183.0
19:39:05.568;-103.0;683.0
19:39:05.608;560.0;871.0
19:39:05.648;1160.0;651.0
19:39:05.688;676.0;380.0
19:39:05.728;63.0;166.0
19:39:05.768;-245.0;116.0
19:39:05.808;-347.0;109.0
19:39:05.848;-325.0;17.0
19:39:05.888;-306.0;-77.0
19:39:05.928;-339.0;-186.0
19:39:05.968;-105.0;-85.0
19:39:06.008;-76.0;-246.0
19:39:06.048;-263.0;-355.0
19:39:06.088;-313.0;-216.0
19:39:06.128;3502.0;-4697.0
19:39:06.168;880.0;-2584.0
19:39:06.208;156.0;-632.0
19:39:06.248;-39.0;394.0
19:39:06.288;285.0;952.0
19:39:06.328;1043.0;987.0
19:39:06.368;951.0;743.0
19:39:06.408;195.0;553.0
19:39:06.448;-258.0;406.0
19:39:06.488;-474.0;358.0
19:39:06.528;-503.0;318.0
19:39:06.568;-427.0;279.0
19:39:06.608;-402.0;204.0
19:39:06.648;-181.0;234.0
19:39:06.688;-66.0;45.0
19:39:06.728;-237.0;19.0
19:39:06.768;-280.0;26.0
19:39:06.808;1261.0;-366.0
19:39:06.848;-29.0;-1381.0
19:39:06.888;2.0;-149.0
19:39:06.928;209.0;499.0
19:39:06.968;629.0;862.0
19:39:07.008;1399.0;855.0
19:39:07.048;1563.0;594.0
19:39:07.088;797.0;377.0
19:39:07.128;256.0;208.0
19:39:07.168;-8.0;108.0
19:39:07.208;-36.0;110.0
19:39:07.248;1.0;141.0
19:39:07.288;7.0;126.0
19:39:07.328;-43.0;94.0
19:39:07.368;-31.0;118.0
19:39:07.408;352.0;43.0
19:39:07.448;156.0;46.0
19:39:07.488;-20.0;5.0
19:39:07.528;80.0;1652.0
19:39:07.568;-345.0;-3101.0
19:39:07.608;-161.0;-1127.0
19:39:07.648;40.0;23.0
19:39:07.688;294.0;628.0
19:39:07.728;922.0;819.0
19:39:07.768;1497.0;606.0
19:39:11.808;950.0;383.0
19:39:11.848;64.0;212.0
19:39:11.888;-295.0;127.0
19:39:11.928;-352.0;41.0
19:39:11.968;-353.0;-17.0
19:39:12.008;-325.0;180.0
19:39:12.048;-315.0;532.0
19:39:12.088;-99.0;162.0
19:39:12.128;-50.0;-222.0
19:39:12.168;-307.0;-386.0
19:39:12.208;-448.0;-400.0
19:39:12.248;691.0;-228.0
19:39:12.288;-559.0;-1762.0
19:39:12.328;-542.0;-603.0
19:39:12.368;-403.0;103.0
19:39:12.408;-74.0;525.0
19:39:12.448;592.0;555.0
19:39:12.488;760.0;325.0
19:39:12.528;4.0;48.0
19:39:12.568;-559.0;-101.0
19:39:12.608;-863.0;-130.0
19:39:12.648;-852.0;-131.0
19:39:12.688;-710.0;-183.0
19:39:12.728;-622.0;-216.0
19:39:12.768;-572.0;-264.0
19:39:12.808;-485.0;-240.0
19:39:12.848;-199.0;-338.0
19:39:12.888;-413.0;-387.0
19:39:12.928;-642.0;-369.0
19:39:12.968;-413.0;796.0
19:39:13.008;-256.0;-4241.0
19:39:13.048;-578.0;-1898.0
19:39:13.088;-468.0;-355.0
19:39:13.128;-185.0;450.0
19:39:13.168;417.0;849.0
19:39:13.208;1149.0;732.0
19:39:13.248;839.0;519.0
19:39:13.288;141.0;285.0
19:39:13.328;-245.0;157.0
19:39:13.368;-347.0;116.0
19:39:13.408;-296.0;126.0
19:39:13.448;-238.0;55.0
19:39:13.488;-233.0;8.0
19:39:13.528;-246.0;-31.0
19:39:13.568;-220.0;-2.0
19:39:13.608;194.0;-1.0
19:39:13.648;189.0;-71.0
19:39:13.688;-94.0;-101.0
19:39:13.728;-244.0;46.0
19:39:13.768;3351.0;-3843.0
19:39:13.808;772.0;-2150.0
19:39:13.848;93.0;-290.0
19:39:13.888;-94.0;715.0
19:39:13.928;214.0;1208.0
19:39:13.968;895.0;1206.0
19:39:14.008;893.0;960.0
19:39:14.048;188.0;684.0
19:39:14.088;-296.0;518.0
19:39:14.128;-463.0;427.0
19:39:14.168;-428.0;313.0
19:39:14.208;-313.0;227.0
19:39:14.248;-297.0;148.0
19:39:14.288;-299.0;90.0
19:39:14.328;-255.0;73.0
19:39:14.368;-281.0;97.0
19:39:14.408;70.0;225.0
19:39:14.448;158.0;94.0
19:39:14.488;-177.0;61.0
19:39:14.528;-353.0;133.0
19:39:14.568;2015.0;-1551.0
19:39:14.608;107.0;-1343.0
19:39:14.648;-190.0;59.0
19:39:14.688;-178.0;779.0
19:39:14.728;172.0;1150.0
19:39:14.768;851.0;1131.0
19:39:14.808;945.0;871.0
19:39:14.848;248.0;649.0
19:39:14.888;-289.0;465.0
19:39:14.928;-524.0;322.0
19:39:14.968;-526.0;229.0
19:39:15.008;-429.0;140.0
19:39:15.048;-427.0;40.0
19:39:15.088;-407.0;-32.0
19:39:15.128;-412.0;-60.0
19:39:15.168;-246.0;87.0
19:39:15.208;120.0;-63.0
19:39:15.248;-215.0;-73.0
19:39:15.288;-464.0;-28.0
19:39:15.328;-461.0;1782.0
19:39:15.368;-842.0;-2912.0
19:39:15.408;-697.0;-802.0
19:39:15.448;-445.0;213.0
19:39:15.488;-96.0;784.0
19:39:15.528;580.0;1000.0
19:39:15.568;1072.0;731.0
19:39:15.608;524.0;536.0
19:39:15.648;-183.0;282.0
19:39:15.688;-560.0;132.0
19:39:15.728;-705.0;57.0
19:39:15.768;-628.0;-1.0
19:39:13.801;-522.0;78.0
19:39:13.841;-588.0;-77.0
19:39:13.881;-618.0;-79.0
19:39:13.921;-241.0;5.0
19:39:13.961;-54.0;-208.0
19:39:14.001;-371.0;-272.0
19:39:14.041;-554.0;-232.0
19:39:14.081;373.0;310.0
19:39:14.121;-551.0;-1608.0
19:39:14.161;-481.0;-373.0
19:39:14.201;-262.0;337.0
19:39:14.241;162.0;756.0
19:39:14.281;919.0;828.0
19:39:14.321;1294.0;560.0
19:39:14.361;661.0;308.0
19:39:14.401;95.0;122.0
19:39:14.441;-167.0;47.0
19:39:14.481;-260.0;-14.0
19:39:14.521;-202.0;-22.0
19:39:14.561;-157.0;-62.0
19:39:14.601;-191.0;-94.0
19:39:14.641;-195.0;-103.0
19:39:14.681;-192.0;-87.0
19:39:14.721;119.0;101.0
19:39:14.761;316.0;-53.0
19:39:14.801;-26.0;-78.0
19:39:14.841;-237.0;-23.0
19:39:14.881;134.0;1493.0
19:39:14.921;-286.0;-1525.0
19:39:14.961;-231.0;-315.0
19:39:15.001;-20.0;367.0
19:39:15.041;324.0;746.0
19:39:15.081;1060.0;841.0
19:39:15.121;1431.0;578.0
19:39:15.161;864.0;338.0
19:39:15.201;261.0;116.0
19:39:15.241;-24.0;-12.0
19:39:15.281;-104.0;-106.0
19:39:15.321;-22.0;-141.0
19:39:15.361;55.0;-226.0
19:39:15.401;39.0;-280.0
19:39:15.441;6.0;-298.0
19:39:15.481;32.0;-306.0
19:39:15.521;330.0;-165.0
19:39:15.561;409.0;-295.0
19:39:15.601;77.0;-303.0
19:39:15.641;-143.0;-181.0
19:39:15.681;1180.0;-346.0
19:39:15.721;-257.0;-1376.0
19:39:15.761;-317.0;-180.0
19:39:15.801;-176.0;498.0
19:39:15.841;176.0;881.0
19:39:15.881;876.0;889.0
19:39:15.921;1122.0;637.0
19:39:15.961;377.0;365.0
19:39:16.001;-233.0;196.0
19:39:16.041;-494.0;70.0
19:39:16.081;-507.0;-19.0
19:39:16.121;-417.0;-102.0
19:39:16.161;-385.0;-187.0
19:39:16.201;-401.0;-258.0
19:39:16.241;-435.0;-305.0
19:39:16.281;-391.0;-309.0
19:39:16.321;-3.0;-350.0
19:39:16.361;-197.0;-481.0
19:39:16.401;-438.0;-491.0
19:39:16.441;-380.0;553.0
19:39:16.481;849.0;-4445.0
19:39:16.521;-191.0;-2050.0
19:39:16.561;-321.0;-350.0
19:39:16.601;-194.0;579.0
19:39:16.641;375.0;1066.0
19:39:16.681;1071.0;1026.0
19:39:16.721;812.0;818.0
19:39:16.761;89.0;581.0
19:39:16.801;-277.0;419.0
19:39:16.841;-421.0;357.0
19:39:16.881;-396.0;306.0
19:39:16.921;-319.0;217.0
19:39:16.961;-311.0;130.0
19:39:17.001;-337.0;54.0
19:39:17.041;-344.0;13.0
19:39:17.081;-240.0;58.0
19:39:17.121;106.0;43.0
19:39:17.161;-15.0;-57.0
19:39:17.201;-250.0;-101.0
19:39:17.241;-274.0;443.0
19:39:17.281;3868.0;-4877.0
19:39:17.321;1114.0;-2307.0
19:39:17.361;193.0;-309.0
19:39:17.401;-19.0;707.0
19:39:17.441;287.0;1241.0
19:39:17.481;886.0;1290.0
19:39:17.521;730.0;1034.0
19:39:17.561;36.0;785.0
19:39:17.601;-406.0;575.0
19:39:17.641;-582.0;478.0
19:39:17.681;-537.0;543.0
19:39:17.721;-474.0;400.0
19:39:17.761;-465.0;296.0
19:39:17.955;-477.0;250.0
19:39:17.995;-354.0;961.0
19:39:18.035;-53.0;1424.0
19:39:18.075;232.0;1051.0
19:39:18.115;-113.0;322.0
19:39:18.155;-362.0;39.0
19:39:18.195;-261.0;1609.0
19:39:18.235;-411.0;-1948.0
19:39:18.275;-358.0;-662.0
19:39:18.315;-161.0;93.0
19:39:18.355;239.0;543.0
19:39:18.395;927.0;719.0
19:39:18.435;1387.0;492.0
19:39:18.475;818.0;208.0
19:39:18.515;201.0;-60.0
19:39:18.555;-122.0;-169.0
19:39:18.595;-182.0;-240.0
19:39:18.635;-104.0;-71.0
19:39:18.675;-33.0;-181.0
19:39:18.715;-27.0;-251.0
19:39:18.755;-34.0;-245.0
19:39:18.795;-54.0;-245.0
19:39:18.835;-3.0;-184.0
19:39:18.875;363.0;-124.0
19:39:18.915;303.0;-210.0
19:39:18.955;-35.0;-169.0
19:39:18.995;-234.0;41.0
19:39:19.035;3543.0;-4183.0
19:39:19.075;758.0;-2243.0
19:39:19.115;-29.0;-333.0
19:39:19.155;-263.0;686.0
19:39:19.195;-21.0;1187.0
19:39:19.235;603.0;1189.0
19:39:19.275;573.0;939.0
19:39:19.315;-150.0;626.0
19:39:19.355;-627.0;388.0
19:39:19.395;-850.0;286.0
19:39:19.435;-786.0;200.0
19:39:19.475;-691.0;120.0
19:39:19.515;-645.0;9.0
19:39:19.555;-649.0;-39.0
19:39:19.595;-677.0;-93.0
19:39:19.635;-521.0;-18.0
19:39:19.675;-149.0;-133.0
19:39:19.715;-464.0;-180.0
19:39:19.755;-703.0;-130.0
19:39:19.795;-754.0;1632.0
19:39:19.835;-1067.0;-3024.0
19:39:19.875;-927.0;-1084.0
19:39:19.915;-675.0;106.0
19:39:19.955;-342.0;769.0
19:39:19.995;307.0;1081.0
19:39:20.035;926.0;952.0
19:39:20.075;522.0;640.0
19:39:20.115;-68.0;387.0
19:39:20.155;-433.0;217.0
19:39:20.195;-553.0;131.0
19:39:20.235;-519.0;45.0
19:39:20.275;-437.0;-26.0
19:39:20.315;-418.0;-66.0
19:39:20.355;-409.0;-153.0
19:39:20.395;-351.0;-162.0
19:39:20.435;-127.0;-61.0
19:39:20.475;280.0;-223.0
19:39:20.515;5.0;-270.0
19:39:20.555;-237.0;-277.0
19:39:20.595;-164.0;1434.0
19:39:20.635;-383.0;-3526.0
19:39:20.675;-319.0;-1357.0
19:39:20.715;-158.0;-67.0
19:39:20.755;189.0;675.0
19:39:20.795;779.0;1005.0
19:39:20.835;1333.0;907.0
19:39:20.875;952.0;646.0
19:39:20.915;280.0;402.0
19:39:20.955;-104.0;253.0
19:39:20.995;-259.0;209.0
19:39:21.035;-251.0;169.0
19:39:21.075;-206.0;93.0
19:39:21.115;-178.0;39.0
19:39:21.155;-225.0;4.0
19:39:21.195;-186.0;-21.0
19:39:21.235;-107.0;17.0
19:39:21.275;262.0;-53.0
19:39:21.315;52.0;-130.0
19:39:21.355;-154.0;-192.0
19:39:21.395;-111.0;629.0
19:39:21.435;2899.0;-4698.0
19:39:21.475;822.0;-2171.0
19:39:21.515;233.0;-330.0
19:39:21.555;117.0;623.0
19:39:21.595;494.0;1141.0
19:39:21.635;1062.0;1136.0
19:39:21.675;870.0;887.0
19:39:21.715;159.0;585.0
19:39:21.755;-269.0;362.0
19:39:21.795;-469.0;317.0
19:39:21.835;-436.0;267.0
19:39:21.875;-365.0;212.0
19:39:21.915;-337.0;178.0
19:39:19.961;-346.0;130.0
19:39:20.001;-349.0;-5.0
19:39:20.041;-20.0;61.0
19:39:20.081;51.0;-107.0
19:39:20.121;-280.0;-106.0
19:39:20.161;-420.0;7.0
19:39:20.201;1339.0;-777.0
19:39:20.241;-329.0;-1360.0
19:39:20.281;-454.0;-74.0
19:39:20.321;-351.0;612.0
19:39:20.361;14.0;1022.0
19:39:20.401;687.0;1033.0
19:39:20.441;829.0;757.0
19:39:20.481;110.0;438.0
19:39:20.521;-402.0;218.0
19:39:20.561;-707.0;108.0
19:39:20.601;-749.0;56.0
19:39:20.641;-672.0;-51.0
19:39:20.681;-644.0;-141.0
19:39:20.721;-641.0;-195.0
19:39:20.761;-624.0;-194.0
19:39:20.801;-576.0;-225.0
19:39:20.841;-255.0;-100.0
19:39:20.881;-89.0;-270.0
19:39:20.921;-368.0;-255.0
19:39:20.961;-564.0;-172.0
19:39:21.001;970.0;-712.0
19:39:21.041;-485.0;-1544.0
19:39:21.081;-529.0;-220.0
19:39:21.121;-374.0;527.0
19:39:21.161;36.0;1003.0
19:39:21.201;731.0;1102.0
19:39:21.241;962.0;817.0
19:39:21.281;335.0;492.0
19:39:21.321;-194.0;278.0
19:39:21.361;-401.0;143.0
19:39:21.401;-455.0;97.0
19:39:21.441;-358.0;3.0
19:39:21.481;-315.0;-91.0
19:39:21.521;-322.0;-173.0
19:39:21.561;-296.0;-227.0
19:39:21.601;-246.0;-246.0
19:39:21.641;-210.0;-215.0
19:39:21.681;172.0;-252.0
19:39:21.721;118.0;-317.0
19:39:21.761;-191.0;-294.0
19:39:21.801;-317.0;-55.0
19:39:21.841;3669.0;-4679.0
19:39:21.881;917.0;-2427.0
19:39:21.921;87.0;-346.0
19:39:21.961;-125.0;734.0
19:39:22.001;158.0;1331.0
19:39:22.041;712.0;1387.0
19:39:22.081;638.0;1130.0
19:39:22.121;-57.0;792.0
19:39:22.161;-510.0;569.0
19:39:22.201;-690.0;438.0
19:39:22.241;-639.0;329.0
19:39:22.281;-524.0;228.0
19:39:22.321;-469.0;114.0
19:39:22.361;-449.0;54.0
19:39:22.401;-387.0;-7.0
19:39:22.441;-373.0;-51.0
19:39:22.481;-332.0;-71.0
19:39:22.521;18.0;7.0
19:39:22.561;97.0;-125.0
19:39:22.601;-247.0;-102.0
19:39:22.641;-413.0;-3.0
19:39:22.681;2729.0;-3178.0
19:39:22.721;368.0;-1970.0
19:39:22.761;-227.0;-193.0
19:39:22.801;-314.0;753.0
19:39:22.841;12.0;1261.0
19:39:22.881;656.0;1317.0
19:39:22.921;697.0;1105.0
19:39:22.961;41.0;781.0
19:39:23.001;-432.0;555.0
19:39:23.041;-644.0;415.0
19:39:23.081;-609.0;319.0
19:39:23.121;-528.0;238.0
19:39:23.161;-473.0;146.0
19:39:23.201;-448.0;57.0
19:39:23.241;-386.0;6.0
19:39:23.281;-298.0;-47.0
19:39:23.321;-192.0;-18.0
19:39:23.361;239.0;-61.0
19:39:23.401;92.0;-154.0
19:39:23.441;-162.0;-151.0
19:39:23.481;-154.0;757.0
19:39:23.521;2315.0;-4252.0
19:39:23.561;530.0;-1954.0
19:39:23.601;70.0;-189.0
19:39:23.641;27.0;728.0
19:39:23.681;394.0;1183.0
19:39:23.721;973.0;1124.0
19:39:23.761;738.0;858.0
19:39:23.801;29.0;609.0
19:39:23.841;-441.0;426.0
19:39:23.881;-636.0;345.0
19:39:23.921;-605.0;239.0
19:39:26.326;950.0;383.0
19:39:26.366;64.0;212.0
19:39:26.406;-295.0;127.0
19:39:26.446;-352.0;41.0
19:39:26.486;-353.0;-17.0
19:39:26.526;-325.0;180.0
19:39:26.566;-315.0;532.0
19:39:26.606;-99.0;162.0
19:39:26.646;-50.0;-222.0
19:39:26.686;-307.0;-386.0
19:39:26.726;-448.0;-400.0
19:39:26.766;691.0;-228.0
19:39:26.806;-559.0;-1762.0
19:39:26.846;-542.0;-603.0
19:39:26.886;-403.0;103.0
19:39:26.926;-74.0;525.0
19:39:26.966;592.0;555.0
19:39:27.006;760.0;325.0
19:39:27.046;4.0;48.0
19:39:27.086;-559.0;-101.0
19:39:27.126;-863.0;-130.0
19:39:27.166;-852.0;-131.0
19:39:27.206;-710.0;-183.0
19:39:27.246;-622.0;-216.0
19:39:27.286;-572.0;-264.0
19:39:27.326;-485.0;-240.0
19:39:27.366;-199.0;-338.0
19:39:27.406;-413.0;-387.0
19:39:27.446;-642.0;-369.0
19:39:27.486;-413.0;796.0
19:39:27.526;-256.0;-4241.0
19:39:27.566;-578.0;-1898.0
19:39:27.606;-468.0;-355.0
19:39:27.646;-185.0;450.0
19:39:27.686;417.0;849.0
19:39:27.726;1149.0;732.0
19:39:27.766;839.0;519.0
19:39:27.806;141.0;285.0
19:39:27.846;-245.0;157.0
19:39:27.886;-347.0;116.0
19:39:27.926;-296.0;126.0
19:39:27.966;-238.0;55.0
19:39:28.006;-233.0;8.0
19:39:28.046;-246.0;-31.0
19:39:28.086;-220.0;-2.0
19:39:28.126;194.0;-1.0
19:39:28.166;189.0;-71.0
19:39:28.206;-94.0;-101.0
19:39:28.246;-244.0;46.0
19:39:28.286;3351.0;-3843.0
19:39:28.326;772.0;-2150.0
19:39:28.366;93.0;-290.0
19:39:28.406;-94.0;715.0
19:39:28.446;214.0;1208.0
19:39:28.486;895.0;1206.0
19:39:28.526;893.0;960.0
19:39:28.566;188.0;684.0
19:39:28.606;-296.0;518.0
19:39:28.646;-463.0;427.0
19:39:28.686;-428.0;313.0
19:39:28.726;-313.0;227.0
19:39:28.766;-297.0;148.0
19:39:28.806;-299.0;90.0
19:39:28.846;-255.0;73.0
19:39:28.886;-281.0;97.0
19:39:28.926;70.0;225.0
19:39:28.966;158.0;94.0
19:39:29.006;-177.0;61.0
19:39:29.046;-353.0;133.0
19:39:29.086;2015.0;-1551.0
19:39:29.126;107.0;-1343.0
19:39:29.166;-190.0;59.0
19:39:29.206;-178.0;779.0
19:39:29.246;172.0;1150.0
19:39:29.286;851.0;1131.0
19:39:29.326;945.0;871.0
19:39:29.366;248.0;649.0
19:39:29.406;-289.0;465.0
19:39:29.446;-524.0;322.0
19:39:29.486;-526.0;229.0
19:39:29.526;-429.0;140.0
19:39:29.566;-427.0;40.0
19:39:29.606;-407.0;-32.0
19:39:29.646;-412.0;-60.0
19:39:29.686;-246.0;87.0
19:39:29.726;120.0;-63.0
19:39:29.766;-215.0;-73.0
19:39:29.806;-464.0;-28.0
19:39:29.846;-461.0;1782.0
19:39:29.886;-842.0;-2912.0
19:39:29.926;-697.0;-802.0
19:39:29.966;-445.0;213.0
19:39:30.006;-96.0;784.0
19:39:30.046;580.0;1000.0
19:39:30.086;1072.0;731.0
19:39:30.126;524.0;536.0
19:39:30.166;-183.0;282.0
19:39:30.206;-560.0;132.0
19:39:30.246;-705.0;57.0
19:39:30.286;-628.0;-1.0
19:39:29.821;-522.0;78.0
19:39:29.861;-588.0;-77.0
19:39:29.901;-618.0;-79.0
19:39:29.941;-241.0;5.0
19:39:29.981;-54.0;-208.0
19:39:30.021;-371.0;-272.0
19:39:30.061;-554.0;-232.0
19:39:30.101;373.0;310.0
19:39:30.141;-551.0;-1608.0
19:39:30.181;-481.0;-373.0
19:39:30.221;-262.0;337.0
19:39:30.261;162.0;756.0
19:39:30.301;919.0;828.0
19:39:30.341;1294.0;560.0
19:39:30.381;661.0;308.0
19:39:30.421;95.0;122.0
19:39:30.461;-167.0;47.0
19:39:30.501;-260.0;-14.0
19:39:30.541;-202.0;-22.0
19:39:30.581;-157.0;-62.0
19:39:30.621;-191.0;-94.0
19:39:30.661;-195.0;-103.0
19:39:30.701;-192.0;-87.0
19:39:30.741;119.0;101.0
19:39:30.781;316.0;-53.0
19:39:30.821;-26.0;-78.0
19:39:30.861;-237.0;-23.0
19:39:30.901;134.0;1493.0
19:39:30.941;-286.0;-1525.0
19:39:30.981;-231.0;-315.0
19:39:31.021;-20.0;367.0
19:39:31.061;324.0;746.0
19:39:31.101;1060.0;841.0
19:39:31.141;1431.0;578.0
19:39:31.181;864.0;338.0
19:39:31.221;261.0;116.0
19:39:31.261;-24.0;-12.0
19:39:31.301;-104.0;-106.0
19:39:31.341;-22.0;-141.0
19:39:31.381;55.0;-226.0
19:39:31.421;39.0;-280.0
19:39:31.461;6.0;-298.0
19:39:31.501;32.0;-306.0
19:39:31.541;330.0;-165.0
19:39:31.581;409.0;-295.0
19:39:31.621;77.0;-303.0
19:39:31.661;-143.0;-181.0
19:39:31.701;1180.0;-346.0
19:39:31.741;-257.0;-1376.0
19:39:31.781;-317.0;-180.0
19:39:31.821;-176.0;498.0
19:39:31.861;176.0;881.0
19:39:31.901;876.0;889.0
19:39:31.941;1122.0;637.0
19:39:31.981;377.0;365.0
19:39:32.021;-233.0;196.0
19:39:32.061;-494.0;70.0
19:39:32.101;-507.0;-19.0
19:39:32.141;-417.0;-102.0
19:39:32.181;-385.0;-187.0
19:39:32.221;-401.0;-258.0
19:39:32.261;-435.0;-305.0
19:39:32.301;-391.0;-309.0
19:39:32.341;-3.0;-350.0
19:39:32.381;-197.0;-481.0
19:39:32.421;-438.0;-491.0
19:39:32.461;-380.0;553.0
19:39:32.501;849.0;-4445.0
19:39:32.541;-191.0;-2050.0
19:39:32.581;-321.0;-350.0
19:39:32.621;-194.0;579.0
19:39:32.661;375.0;1066.0
19:39:32.701;1071.0;1026.0
19:39:32.741;812.0;818.0
19:39:32.781;89.0;581.0
19:39:32.821;-277.0;419.0
19:39:32.861;-421.0;357.0
19:39:32.901;-396.0;306.0
19:39:32.941;-319.0;217.0
19:39:32.981;-311.0;130.0
19:39:33.021;-337.0;54.0
19:39:33.061;-344.0;13.0
19:39:33.101;-240.0;58.0
19:39:33.141;106.0;43.0
19:39:33.181;-15.0;-57.0
19:39:33.221;-250.0;-101.0
19:39:33.261;-274.0;443.0
19:39:33.301;3868.0;-4877.0
19:39:33.341;1114.0;-2307.0
19:39:33.381;193.0;-309.0
19:39:33.421;-19.0;707.0
19:39:33.461;287.0;1241.0
19:39:33.501;886.0;1290.0
19:39:33.541;730.0;1034.0
19:39:33.581;36.0;785.0
19:39:33.621;-406.0;575.0
19:39:33.661;-582.0;478.0
19:39:33.701;-537.0;543.0
19:39:33.741;-474.0;400.0
19:39:33.781;-465.0;296.0
19:39:32.922;-477.0;250.0
19:39:32.962;-354.0;961.0
19:39:33.002;-53.0;1424.0
19:39:33.042;232.0;1051.0
19:39:33.082;-113.0;322.0
19:39:33.122;-362.0;39.0
19:39:33.162;-261.0;1609.0
19:39:33.202;-411.0;-1948.0
19:39:33.242;-358.0;-662.0
19:39:33.282;-161.0;93.0
19:39:33.322;239.0;543.0
19:39:33.362;927.0;719.0
19:39:33.402;1387.0;492.0
19:39:33.442;818.0;208.0
19:39:33.482;201.0;-60.0
19:39:33.522;-122.0;-169.0
19:39:33.562;-182.0;-240.0
19:39:33.602;-104.0;-71.0
19:39:33.642;-33.0;-181.0
19:39:33.682;-27.0;-251.0
19:39:33.722;-34.0;-245.0
19:39:33.762;-54.0;-245.0
19:39:33.802;-3.0;-184.0
19:39:33.842;363.0;-124.0
19:39:33.882;303.0;-210.0
19:39:33.922;-35.0;-169.0
19:39:33.962;-234.0;41.0
19:39:34.002;3543.0;-4183.0
19:39:34.042;758.0;-2243.0
19:39:34.082;-29.0;-333.0
19:39:34.122;-263.0;686.0
19:39:34.162;-21.0;1187.0
19:39:34.202;603.0;1189.0
19:39:34.242;573.0;939.0
19:39:34.282;-150.0;626.0
19:39:34.322;-627.0;388.0
19:39:34.362;-850.0;286.0
19:39:34.402;-786.0;200.0
19:39:34.442;-691.0;120.0
19:39:34.482;-645.0;9.0
19:39:34.522;-649.0;-39.0
19:39:34.562;-677.0;-93.0
19:39:34.602;-521.0;-18.0
19:39:34.642;-149.0;-133.0
19:39:34.682;-464.0;-180.0
19:39:34.722;-703.0;-130.0
19:39:34.762;-754.0;1632.0
19:39:34.802;-1067.0;-3024.0
19:39:34.842;-927.0;-1084.0
19:39:34.882;-675.0;106.0
19:39:34.922;-342.0;769.0
19:39:34.962;307.0;1081.0
19:39:35.002;926.0;952.0
19:39:35.042;522.0;640.0
19:39:35.082;-68.0;387.0
19:39:35.122;-433.0;217.0
19:39:35.162;-553.0;131.0
19:39:35.202;-519.0;45.0
19:39:35.242;-437.0;-26.0
19:39:35.282;-418.0;-66.0
19:39:35.322;-409.0;-153.0
19:39:35.362;-351.0;-162.0
19:39:35.402;-127.0;-61.0
19:39:35.442;280.0;-223.0
19:39:35.482;5.0;-270.0
19:39:35.522;-237.0;-277.0
19:39:35.562;-164.0;1434.0
19:39:35.602;-383.0;-3526.0
19:39:35.642;-319.0;-1357.0
19:39:35.682;-158.0;-67.0
19:39:35.722;189.0;675.0
19:39:35.762;779.0;1005.0
19:39:35.802;1333.0;907.0
19:39:35.842;952.0;646.0
19:39:35.882;280.0;402.0
19:39:35.922;-104.0;253.0
19:39:35.962;-259.0;209.0
19:39:36.002;-251.0;169.0
19:39:36.042;-206.0;93.0
19:39:36.082;-178.0;39.0
19:39:36.122;-225.0;4.0
19:39:36.162;-186.0;-21.0
19:39:36.202;-107.0;17.0
19:39:36.242;262.0;-53.0
19:39:36.282;52.0;-130.0
19:39:36.322;-154.0;-192.0
19:39:36.362;-111.0;629.0
19:39:36.402;2899.0;-4698.0
19:39:36.442;822.0;-2171.0
19:39:36.482;233.0;-330.0
19:39:36.522;117.0;623.0
19:39:36.562;494.0;1141.0
19:39:36.602;1062.0;1136.0
19:39:36.642;870.0;887.0
19:39:36.682;159.0;585.0
19:39:36.722;-269.0;362.0
19:39:36.762;-469.0;317.0
19:39:36.802;-436.0;267.0
19:39:36.842;-365.0;212.0
19:39:36.882;-337.0;178.0
19:39:42.100;-544.0;154.0
19:39:42.140;-514.0;-35.0
19:39:42.180;-535.0;-88.0
19:39:42.220;-472.0;-124.0
19:39:42.260;-95.0;-174.0
19:39:42.300;-247.0;-250.0
19:39:42.340;-472.0;-241.0
19:39:42.380;-524.0;271.0
19:39:42.420;3730.0;-4759.0
19:39:42.460;805.0;-2328.0
19:39:42.500;-113.0;-328.0
19:39:42.540;-373.0;748.0
19:39:42.580;-67.0;1371.0
19:39:42.620;581.0;1373.0
19:39:42.660;511.0;1054.0
19:39:42.700;-133.0;728.0
19:39:42.740;-590.0;484.0
19:39:42.780;-751.0;367.0
19:39:42.820;-691.0;307.0
19:39:42.860;-574.0;204.0
19:39:42.900;-493.0;94.0
19:39:42.940;-472.0;43.0
19:39:42.980;-420.0;-30.0
19:39:43.020;-366.0;-89.0
19:39:43.060;-294.0;-68.0
19:39:43.100;130.0;-110.0
19:39:43.140;-40.0;-221.0
19:39:43.180;-264.0;-234.0
19:39:43.220;-281.0;516.0
19:39:43.260;3681.0;-4954.0
19:39:43.300;1023.0;-2277.0
19:39:43.340;141.0;-269.0
19:39:43.380;-121.0;799.0
19:39:43.420;181.0;1336.0
19:39:43.460;763.0;1365.0
19:39:43.500;601.0;1138.0
19:39:43.540;-97.0;834.0
19:39:43.580;-520.0;625.0
19:39:43.620;-645.0;512.0
19:39:43.660;-611.0;417.0
19:39:43.700;-521.0;370.0
19:39:43.740;-468.0;273.0
19:39:43.780;-430.0;143.0
19:39:43.820;-393.0;69.0
19:39:43.860;-384.0;33.0
19:39:43.900;-160.0;133.0
19:39:43.940;172.0;-19.0
19:39:43.980;-67.0;-80.0
19:39:44.020;-308.0;-104.0
19:39:44.060;-341.0;1473.0
19:39:44.100;-581.0;-3339.0
19:39:44.140;-535.0;-1175.0
19:39:44.180;-375.0;145.0
19:39:44.220;-80.0;861.0
19:39:44.260;552.0;1213.0
19:39:44.300;1109.0;1110.0
19:39:44.340;671.0;853.0
19:39:44.380;53.0;617.0
19:39:44.420;-273.0;441.0
19:39:44.460;-428.0;356.0
19:39:44.500;-386.0;285.0
19:39:44.540;-328.0;181.0
19:39:44.580;-311.0;97.0
19:39:44.620;-342.0;56.0
19:39:44.660;-309.0;-4.0
19:39:44.700;-280.0;-34.0
19:39:44.740;-226.0;-6.0
19:39:44.780;150.0;-30.0
19:39:44.820;7.0;-103.0
19:39:44.860;-216.0;-144.0
19:39:44.900;-236.0;592.0
19:39:44.940;3462.0;-4615.0
19:39:44.980;963.0;-2163.0
19:39:45.020;183.0;-277.0
19:39:45.060;-44.0;693.0
19:39:45.100;230.0;1211.0
19:39:45.140;843.0;1206.0
19:39:45.180;657.0;967.0
19:39:45.220;-27.0;721.0
19:39:45.260;-501.0;571.0
19:39:45.300;-688.0;474.0
19:39:45.340;-680.0;385.0
19:39:45.380;-599.0;285.0
19:39:45.420;-603.0;204.0
19:39:45.460;-584.0;116.0
19:39:45.500;-648.0;53.0
19:39:45.540;-625.0;53.0
19:39:45.580;-330.0;127.0
19:39:45.620;-205.0;-83.0
19:39:45.660;-514.0;-197.0
19:39:45.700;-689.0;-214.0
19:39:45.740;607.0;-332.0
19:39:45.780;-790.0;-1574.0
19:39:45.820;-780.0;-400.0
19:39:45.860;-609.0;251.0
19:39:45.900;-285.0;688.0
19:39:45.940;435.0;796.0
19:39:45.980;669.0;502.0
19:39:46.020;-4.0;241.0
19:39:46.060;-533.0;39.0
19:39:47.627;-781.0;-3.0
19:39:47.667;-726.0;-154.0
19:39:47.707;-687.0;-214.0
19:39:47.747;-704.0;-243.0
19:39:47.787;-692.0;-244.0
19:39:47.827;-656.0;-249.0
19:39:47.867;-547.0;-180.0
19:39:47.907;-129.0;-134.0
19:39:47.947;-245.0;-159.0
19:39:47.987;-520.0;-150.0
19:39:48.027;-596.0;420.0
19:39:48.067;3678.0;-4720.0
19:39:48.107;788.0;-2282.0
19:39:48.147;-86.0;-305.0
19:39:48.187;-321.0;714.0
19:39:48.227;-36.0;1282.0
19:39:48.267;586.0;1292.0
19:39:48.307;513.0;1022.0
19:39:48.347;-148.0;664.0
19:39:48.387;-575.0;412.0
19:39:48.427;-720.0;230.0
19:39:48.467;-680.0;120.0
19:39:48.507;-557.0;44.0
19:39:48.547;-498.0;1.0
19:39:48.587;-494.0;-44.0
19:39:48.627;-415.0;-75.0
19:39:48.667;-360.0;-81.0
19:39:48.707;-302.0;-58.0
19:39:48.747;109.0;-42.0
19:39:48.787;56.0;-88.0
19:39:48.827;-214.0;-58.0
19:39:48.867;-323.0;148.0
19:39:48.907;3686.0;-4520.0
19:39:48.947;979.0;-2277.0
19:39:48.987;160.0;-248.0
19:39:49.027;-76.0;783.0
19:39:49.067;198.0;1336.0
19:39:49.107;788.0;1359.0
19:39:49.147;778.0;1064.0
19:39:49.187;89.0;1212.0
19:39:49.227;-346.0;706.0
19:39:49.267;-458.0;404.0
19:39:49.307;-447.0;210.0
19:39:49.347;-391.0;73.0
19:39:49.387;-352.0;5.0
19:39:49.427;-366.0;16.0
19:39:49.467;-354.0;-83.0
19:39:49.507;-320.0;-140.0
19:39:49.547;-268.0;-94.0
19:39:49.587;126.0;129.0
19:39:49.627;-74.0;-83.0
19:39:49.667;-373.0;-138.0
19:39:49.707;-378.0;700.0
19:39:49.747;2355.0;-4348.0
19:39:49.787;302.0;-1134.0
19:39:49.827;-231.0;158.0
19:39:49.867;-319.0;840.0
19:39:49.907;18.0;1206.0
19:39:49.947;634.0;1105.0
19:39:49.987;397.0;1479.0
19:39:50.027;-332.0;767.0
19:39:50.067;-783.0;369.0
19:39:50.107;-944.0;192.0
19:39:50.147;-897.0;84.0
19:39:50.187;-801.0;3.0
19:39:50.227;-764.0;-97.0
19:39:50.267;-779.0;-190.0
19:39:50.307;-765.0;-261.0
19:39:50.347;-699.0;-313.0
19:39:50.387;-334.0;-137.0
19:39:50.427;-199.0;-358.0
19:39:50.467;-568.0;-356.0
19:39:50.507;-730.0;-313.0
19:39:50.547;2561.0;-3382.0
19:39:50.587;25.0;-2190.0
19:39:50.627;-441.0;-404.0
19:39:50.667;-498.0;572.0
19:39:50.707;-175.0;1098.0
19:39:50.747;543.0;1208.0
19:39:50.787;724.0;944.0
19:39:50.827;154.0;658.0
19:39:50.867;-334.0;446.0
19:39:50.907;-532.0;342.0
19:39:50.947;-529.0;296.0
19:39:50.987;-395.0;251.0
19:39:51.027;-327.0;166.0
19:39:51.067;-308.0;67.0
19:39:51.107;-283.0;14.0
19:39:51.147;-239.0;-65.0
19:39:51.187;-180.0;-75.0
19:39:51.227;219.0;-59.0
19:39:51.267;301.0;-218.0
19:39:51.307;32.0;-273.0
19:39:51.347;-110.0;-155.0
19:39:51.387;3485.0;-3954.0
19:39:51.427;906.0;-2355.0
19:39:51.467;229.0;-430.0
19:39:51.507;65.0;579.0
19:39:51.547;387.0;1162.0
19:39:51.587;998.0;1245.0
19:39:49.833;1037.0;1026.0
19:39:49.873;188.0;674.0
19:39:49.913;-209.0;453.0
19:39:49.953;-297.0;1179.0
19:39:49.993;-256.0;630.0
19:39:50.033;-227.0;270.0
19:39:50.073;-267.0;109.0
19:39:50.113;-201.0;-34.0
19:39:50.153;-196.0;691.0
19:39:50.193;-62.0;223.0
19:39:50.233;319.0;-71.0
19:39:50.273;148.0;-297.0
19:39:50.313;-119.0;-373.0
19:39:50.353;-61.0;1350.0
19:39:50.393;1317.0;-4124.0
19:39:50.433;150.0;-1994.0
19:39:50.473;-30.0;-337.0
19:39:50.513;92.0;565.0
19:39:50.553;527.0;1343.0
19:39:50.593;1111.0;1179.0
19:39:50.633;866.0;839.0
19:39:50.673;138.0;563.0
19:39:50.713;-343.0;383.0
19:39:50.753;-560.0;406.0
19:39:50.793;-610.0;331.0
19:39:50.833;-620.0;252.0
19:39:50.873;-620.0;178.0
19:39:50.913;-668.0;113.0
19:39:50.953;-658.0;77.0
19:39:50.993;-646.0;45.0
19:39:51.033;-365.0;161.0
19:39:51.073;-235.0;-74.0
19:39:51.113;-546.0;-134.0
19:39:51.153;-656.0;-146.0
19:39:51.193;144.0;688.0
19:39:51.233;-694.0;-1512.0
19:39:51.273;-618.0;-410.0
19:39:51.313;-396.0;243.0
19:39:51.353;20.0;669.0
19:39:51.393;735.0;816.0
19:39:51.433;1071.0;602.0
19:39:51.473;555.0;292.0
19:39:51.513;48.0;85.0
19:39:51.553;-191.0;31.0
19:39:51.593;-222.0;9.0
19:39:51.633;-173.0;-5.0
19:39:51.673;-98.0;-34.0
19:39:51.713;-110.0;-93.0
19:39:51.753;-119.0;-120.0
19:39:51.793;-96.0;-100.0
19:39:51.833;257.0;52.0
19:39:51.873;382.0;-146.0
19:39:51.913;51.0;-185.0
19:39:51.953;-174.0;-183.0
19:39:51.993;681.0;267.0
19:39:52.033;-279.0;-1575.0
19:39:52.073;-228.0;-415.0
19:39:52.113;-41.0;232.0
19:39:52.153;360.0;660.0
19:39:52.193;1088.0;783.0
19:39:52.233;1434.0;544.0
19:39:52.273;762.0;250.0
19:39:52.313;199.0;6.0
19:39:52.353;-81.0;-89.0
19:39:52.393;-146.0;-134.0
19:39:52.433;-136.0;-164.0
19:39:52.473;-152.0;-192.0
19:39:52.513;-264.0;-176.0
19:39:52.553;-340.0;-146.0
19:39:52.593;-189.0;-26.0
19:39:52.633;201.0;-70.0
19:39:52.673;-78.0;-122.0
19:39:52.713;-313.0;-76.0
19:39:52.753;-209.0;1184.0
19:39:52.793;-552.0;-3378.0
19:39:52.833;-539.0;-1260.0
19:39:52.873;-300.0;46.0
19:39:52.913;-27.0;734.0
19:39:52.953;560.0;1047.0
19:39:52.993;1111.0;899.0
19:39:53.033;752.0;664.0
19:39:53.073;111.0;433.0
19:39:53.113;-173.0;296.0
19:39:53.153;-305.0;228.0
19:39:53.193;-270.0;231.0
19:39:53.233;-249.0;172.0
19:39:53.273;-224.0;117.0
19:39:53.313;-241.0;64.0
19:39:53.353;38.0;51.0
19:39:53.393;-26.0;-51.0
19:39:53.433;-373.0;-87.0
19:39:53.473;-536.0;213.0
19:39:53.513;3212.0;-3991.0
19:39:53.553;232.0;-2197.0
19:39:53.593;-491.0;-323.0
19:39:53.633;-682.0;679.0
19:39:53.673;-393.0;1187.0
19:39:53.713;316.0;1358.0
19:39:53.753;253.0;962.0
19:39:53.793;-453.0;608.0
19:39:52.121;-893.0;324.0
19:39:52.161;-966.0;133.0
19:39:52.201;-830.0;31.0
19:39:52.241;-727.0;-34.0
19:39:52.281;-640.0;-13.0
19:39:52.321;-273.0;17.0
19:39:52.361;-502.0;-114.0
19:39:52.401;-700.0;-132.0
19:39:52.441;-603.0;698.0
19:39:52.481;2500.0;-4656.0
19:39:52.521;245.0;-2101.0
19:39:52.561;-350.0;-237.0
19:39:52.601;-455.0;723.0
19:39:52.641;-12.0;1279.0
19:39:52.681;686.0;1231.0
19:39:52.721;475.0;950.0
19:39:52.761;-198.0;692.0
19:39:52.801;-575.0;484.0
19:39:52.841;-691.0;420.0
19:39:52.881;-627.0;386.0
19:39:52.921;-534.0;321.0
19:39:52.961;-511.0;186.0
19:39:53.001;-356.0;211.0
19:39:53.041;44.0;72.0
19:39:53.081;-210.0;-1.0
19:39:53.121;-430.0;16.0
19:39:53.161;-206.0;1299.0
19:39:53.201;-508.0;-3455.0
19:39:53.241;-489.0;-1169.0
19:39:53.281;-262.0;210.0
19:39:53.321;86.0;946.0
19:39:53.361;800.0;1272.0
19:39:53.401;1443.0;1108.0
19:39:53.441;989.0;862.0
19:39:53.481;280.0;621.0
19:39:53.521;-110.0;439.0
19:39:53.561;-213.0;347.0
19:39:53.601;-82.0;259.0
19:39:53.641;12.0;198.0
19:39:53.681;30.0;69.0
19:39:53.721;50.0;81.0
19:39:53.761;439.0;40.0
19:39:53.801;256.0;-77.0
19:39:53.841;24.0;-95.0
19:39:53.881;54.0;675.0
19:39:53.921;3127.0;-4548.0
19:39:53.961;816.0;-2107.0
19:39:54.001;132.0;-304.0
19:39:54.041;-22.0;654.0
19:39:54.081;275.0;1135.0
19:39:54.121;816.0;1058.0
19:39:54.161;467.0;855.0
19:39:54.201;-341.0;663.0
19:39:54.241;-813.0;521.0
19:39:54.281;-1010.0;474.0
19:39:54.321;-873.0;384.0
19:39:54.361;-693.0;301.0
19:39:54.401;-540.0;204.0
19:39:54.441;-486.0;160.0
19:39:54.481;-316.0;184.0
19:39:54.521;54.0;14.0
19:39:54.561;-181.0;-96.0
19:39:54.601;-403.0;-189.0
19:39:54.641;-200.0;1074.0
19:39:54.681;-615.0;-3683.0
19:39:54.721;-564.0;-1534.0
19:39:54.761;-314.0;-229.0
19:39:54.801;7.0;492.0
19:39:54.841;674.0;798.0
19:39:54.881;1291.0;629.0
19:39:54.921;882.0;403.0
19:39:54.961;233.0;175.0
19:39:55.001;-130.0;66.0
19:39:55.041;-302.0;50.0
19:39:55.081;-271.0;-5.0
19:39:55.121;-176.0;-43.0
19:39:55.161;-155.0;-73.0
19:39:55.201;-200.0;-89.0
19:39:55.241;-231.0;-71.0
19:39:55.281;-191.0;-60.0
19:39:55.321;157.0;-54.0
19:39:55.361;112.0;-105.0
19:39:55.401;-206.0;-88.0
19:39:55.441;-360.0;46.0
19:39:55.481;3446.0;-4111.0
19:39:55.521;731.0;-2259.0
19:39:55.561;-51.0;-336.0
19:39:55.601;-234.0;637.0
19:39:55.641;67.0;1169.0
19:39:55.681;752.0;1143.0
19:39:55.721;720.0;846.0
19:39:55.761;-18.0;559.0
19:39:55.801;-493.0;362.0
19:39:55.841;-667.0;263.0
19:39:55.881;-640.0;234.0
19:39:55.921;-524.0;169.0
19:39:55.961;-466.0;113.0
19:39:56.001;-478.0;72.0
19:39:56.041;-455.0;62.0
19:39:56.081;-473.0;67.0
19:40:04.513;-458.0;109.0
19:40:04.553;4.0;75.0
19:40:04.593;-214.0;446.0
19:40:04.633;-363.0;157.0
19:40:04.673;-140.0;1303.0
19:40:04.713;-199.0;-3610.0
19:40:04.753;-309.0;-1369.0
19:40:04.793;-196.0;834.0
19:40:04.833;74.0;1085.0
19:40:04.873;633.0;1175.0
19:40:04.913;1231.0;930.0
19:40:04.953;823.0;645.0
19:40:04.993;136.0;510.0
19:40:05.033;-251.0;295.0
19:40:05.073;-401.0;247.0
19:40:05.113;-363.0;212.0
19:40:05.153;-288.0;150.0
19:40:05.193;-272.0;122.0
19:40:05.233;-260.0;29.0
19:40:05.273;-211.0;-41.0
19:40:05.313;-220.0;-77.0
19:40:05.353;-176.0;-115.0
19:40:05.393;139.0;-17.0
19:40:05.433;394.0;-182.0
19:40:05.473;43.0;-235.0
19:40:05.513;-164.0;-230.0
19:40:05.553;-2.0;1463.0
19:40:05.593;-125.0;-1973.0
19:40:05.633;-110.0;-706.0
19:40:05.673;86.0;82.0
19:40:05.713;403.0;537.0
19:40:05.753;1130.0;680.0
19:40:05.793;1533.0;472.0
19:40:05.833;926.0;201.0
19:40:05.873;312.0;5.0
19:40:05.913;-50.0;-64.0
19:40:05.953;-97.0;-45.0
19:40:05.993;-40.0;-49.0
19:40:06.033;40.0;-84.0
19:40:06.073;68.0;-87.0
19:40:06.113;-4.0;-143.0
19:40:06.153;-19.0;-166.0
19:40:06.193;-14.0;-175.0
19:40:06.233;20.0;-107.0
19:40:06.273;394.0;-135.0
19:40:06.313;202.0;-231.0
19:40:06.353;-50.0;-253.0
19:40:06.393;10.0;720.0
19:40:06.433;2041.0;-4177.0
19:40:06.473;416.0;-2020.0
19:40:06.513;1.0;-383.0
19:40:06.553;-17.0;468.0
19:40:06.593;428.0;926.0
19:40:06.633;1041.0;837.0
19:40:06.673;702.0;571.0
19:40:06.713;-62.0;320.0
19:40:06.753;-495.0;187.0
19:40:06.793;-705.0;378.0
19:40:06.833;-645.0;197.0
19:40:06.873;-508.0;130.0
19:40:06.913;-482.0;77.0
19:40:06.953;-493.0;31.0
19:40:06.993;-541.0;19.0
19:40:07.033;-529.0;21.0
19:40:07.073;-486.0;-8.0
19:40:07.113;-159.0;122.0
19:40:07.153;43.0;-98.0
19:40:07.193;-283.0;-142.0
19:40:07.233;-457.0;-158.0
19:40:07.273;638.0;45.0
19:40:07.313;-439.0;-1561.0
19:40:07.353;-445.0;-374.0
19:40:07.393;-251.0;319.0
19:40:07.433;120.0;781.0
19:40:07.473;831.0;871.0
19:40:07.513;1212.0;625.0
19:40:07.553;570.0;318.0
19:40:07.593;-26.0;136.0
19:40:07.633;-295.0;6.0
19:40:07.673;-381.0;-25.0
19:40:07.713;-278.0;-27.0
19:40:07.753;-184.0;-51.0
19:40:07.793;-212.0;-60.0
19:40:07.833;-221.0;-46.0
19:40:07.873;-223.0;-13.0
19:40:07.913;-226.0;-24.0
19:40:07.953;-139.0;30.0
19:40:07.993;251.0;18.0
19:40:08.033;70.0;-45.0
19:40:08.073;-164.0;-87.0
19:40:08.113;-217.0;492.0
19:40:08.153;3962.0;-4797.0
19:40:08.193;1172.0;-2327.0
19:40:08.233;296.0;-360.0
19:40:08.273;69.0;634.0
19:40:08.313;371.0;1121.0
19:40:08.353;998.0;1061.0
19:40:08.393;883.0;755.0
19:40:08.433;149.0;418.0
19:40:08.473;-264.0;237.0
19:40:09.905;-415.0;116.0
19:40:09.945;-312.0;153.0
19:40:09.985;-270.0;122.0
19:40:10.025;-238.0;54.0
19:40:10.065;-254.0;307.0
19:40:10.105;-230.0;28.0
19:40:10.145;-189.0;-109.0
19:40:10.185;-86.0;-139.0
19:40:10.225;338.0;-190.0
19:40:10.265;177.0;-162.0
19:40:10.305;-57.0;-247.0
19:40:10.345;-53.0;537.0
19:40:10.385;3294.0;-4800.0
19:40:10.425;923.0;-2243.0
19:40:10.465;177.0;-307.0
19:40:10.505;-16.0;662.0
19:40:10.545;251.0;1198.0
19:40:10.585;845.0;1158.0
19:40:10.625;616.0;931.0
19:40:10.665;-174.0;689.0
19:40:10.705;-631.0;510.0
19:40:10.745;-816.0;447.0
19:40:10.785;-781.0;390.0
19:40:10.825;-664.0;367.0
19:40:10.865;-641.0;288.0
19:40:10.905;-630.0;240.0
19:40:10.945;-587.0;170.0
19:40:10.985;-561.0;108.0
19:40:11.025;-474.0;141.0
19:40:11.065;-80.0;96.0
19:40:11.105;-175.0;-45.0
19:40:11.145;-427.0;-54.0
19:40:11.185;-513.0;450.0
19:40:11.225;3640.0;-4619.0
19:40:11.265;862.0;-2210.0
19:40:11.305;-71.0;-238.0
19:40:11.345;-328.0;801.0
19:40:11.385;-65.0;1331.0
19:40:11.425;544.0;1316.0
19:40:11.465;362.0;1115.0
19:40:11.505;-415.0;856.0
19:40:11.545;-908.0;677.0
19:40:11.585;-1118.0;565.0
19:40:11.625;-1081.0;536.0
19:40:11.665;-970.0;464.0
19:40:11.705;-939.0;338.0
19:40:11.745;-946.0;281.0
19:40:11.785;-961.0;247.0
19:40:11.825;-737.0;338.0
19:40:11.865;-335.0;137.0
19:40:11.905;-622.0;45.0
19:40:11.945;-775.0;-25.0
19:40:11.985;-788.0;1791.0
19:40:12.025;-1003.0;-2701.0
19:40:12.065;-914.0;-997.0
19:40:12.105;-663.0;38.0
19:40:12.145;-283.0;661.0
19:40:12.185;425.0;899.0
19:40:12.225;960.0;699.0
19:40:12.265;360.0;421.0
19:40:12.305;-354.0;166.0
19:40:12.345;-719.0;68.0
19:40:12.385;-835.0;34.0
19:40:12.425;-760.0;29.0
19:40:12.465;-626.0;10.0
19:40:12.505;-517.0;-25.0
19:40:12.545;-488.0;-57.0
19:40:12.585;-438.0;-57.0
19:40:12.625;4.0;-118.0
19:40:12.665;-120.0;-187.0
19:40:12.705;-351.0;-231.0
19:40:12.745;-341.0;409.0
19:40:12.785;3581.0;-5008.0
19:40:12.825;921.0;-2456.0
19:40:12.865;119.0;-484.0
19:40:12.905;-66.0;525.0
19:40:12.945;359.0;1074.0
19:40:12.985;1052.0;1051.0
19:40:13.025;826.0;772.0
19:40:13.065;85.0;511.0
19:40:13.105;-335.0;368.0
19:40:13.145;-474.0;311.0
19:40:13.185;-409.0;258.0
19:40:13.225;-275.0;210.0
19:40:13.265;-210.0;183.0
19:40:13.305;-220.0;172.0
19:40:13.345;-134.0;172.0
19:40:13.385;301.0;111.0
19:40:13.425;155.0;-13.0
19:40:13.465;-105.0;-35.0
19:40:13.505;-49.0;686.0
19:40:13.545;3498.0;-4573.0
19:40:13.585;997.0;-2121.0
19:40:13.625;300.0;-220.0
19:40:13.665;201.0;740.0
19:40:13.705;593.0;1216.0
19:40:13.745;1291.0;1145.0
19:40:13.785;978.0;880.0
19:40:13.825;151.0;610.0
19:40:13.865;-368.0;435.0
19:40:11.623;-560.0;458.0
19:40:11.663;368.0;629.0
19:40:11.703;752.0;414.0
19:40:11.743;52.0;239.0
19:40:11.783;-474.0;39.0
19:40:11.823;-682.0;-45.0
19:40:11.863;-712.0;-47.0
19:40:11.903;-573.0;-28.0
19:40:11.943;-457.0;-64.0
19:40:11.983;-433.0;-138.0
19:40:12.023;-405.0;-177.0
19:40:12.063;-197.0;-51.0
19:40:12.103;210.0;-146.0
19:40:12.143;-67.0;-202.0
19:40:12.183;-318.0;-170.0
19:40:12.223;-138.0;1437.0
19:40:12.263;-565.0;-3416.0
19:40:12.303;-495.0;-1216.0
19:40:12.343;-341.0;77.0
19:40:12.383;-5.0;835.0
19:40:12.423;631.0;1151.0
19:40:12.463;1266.0;914.0
19:40:12.503;774.0;702.0
19:40:12.543;41.0;483.0
19:40:12.583;-403.0;375.0
19:40:12.623;-530.0;314.0
19:40:12.663;-469.0;291.0
19:40:12.703;-355.0;221.0
19:40:12.743;-267.0;119.0
19:40:12.783;-305.0;40.0
19:40:12.823;-278.0;-36.0
19:40:12.863;-241.0;-36.0
19:40:12.903;-222.0;-82.0
19:40:12.943;-179.0;-85.0
19:40:12.983;-141.0;-103.0
19:40:13.023;129.0;47.0
19:40:13.063;368.0;-113.0
19:40:13.103;81.0;-137.0
19:40:13.143;-149.0;-118.0
19:40:13.183;-147.0;1634.0
19:40:13.223;-127.0;-1946.0
19:40:13.263;-186.0;-527.0
19:40:13.303;-71.0;336.0
19:40:13.343;214.0;864.0
19:40:13.383;874.0;996.0
19:40:13.423;1345.0;725.0
19:40:13.463;790.0;456.0
19:40:13.503;122.0;257.0
19:40:13.543;-188.0;100.0
19:40:13.583;-282.0;70.0
19:40:13.623;-209.0;53.0
19:40:13.663;-138.0;8.0
19:40:13.703;-184.0;-126.0
19:40:13.743;-191.0;-195.0
19:40:13.783;-188.0;-210.0
19:40:13.823;-147.0;-229.0
19:40:13.863;-166.0;-213.0
19:40:13.903;-186.0;-211.0
19:40:13.943;-194.0;-214.0
19:40:13.983;-170.0;-151.0
19:40:14.023;195.0;-117.0
19:40:14.063;85.0;-98.0
19:40:14.103;-162.0;-91.0
19:40:14.143;-289.0;124.0
19:40:14.183;3843.0;-4512.0
19:40:14.223;966.0;-2280.0
19:40:14.263;27.0;-204.0
19:40:14.303;-283.0;873.0
19:40:14.343;-5.0;1471.0
19:40:14.383;648.0;1473.0
19:40:14.423;630.0;1162.0
19:40:14.463;-80.0;875.0
19:40:14.503;-578.0;629.0
19:40:14.543;-773.0;487.0
19:40:14.583;-755.0;379.0
19:40:14.623;-607.0;335.0
19:40:14.663;-563.0;205.0
19:40:14.703;-565.0;81.0
19:40:14.743;-545.0;41.0
19:40:14.783;-498.0;-16.0
19:40:14.823;-512.0;-26.0
19:40:14.863;-457.0;-17.0
19:40:14.903;-417.0;-19.0
19:40:14.943;-356.0;24.0
19:40:14.983;34.0;15.0
19:40:15.023;10.0;-50.0
19:40:15.063;-248.0;-41.0
19:40:15.103;-413.0;212.0
19:40:15.143;3765.0;-4463.0
19:40:15.183;922.0;-2236.0
19:40:15.223;5.0;-162.0
19:40:15.263;-234.0;918.0
19:40:15.303;28.0;1484.0
19:40:15.343;709.0;1480.0
19:40:15.383;686.0;1148.0
19:40:15.423;-30.0;842.0
19:40:15.463;-485.0;588.0
19:40:15.503;-668.0;442.0
19:40:15.543;-641.0;365.0
19:40:15.583;-479.0;279.0
19:40:13.328;-414.0;179.0
19:40:13.368;-375.0;149.0
19:40:13.408;-359.0;122.0
19:40:13.448;-283.0;83.0
19:40:13.488;-274.0;58.0
19:40:13.528;-221.0;49.0
19:40:13.568;-173.0;56.0
19:40:13.608;243.0;19.0
19:40:13.648;74.0;-64.0
19:40:13.688;-107.0;-128.0
19:40:13.728;-158.0;575.0
19:40:13.768;3826.0;-4711.0
19:40:13.808;1109.0;-2278.0
19:40:13.848;213.0;-323.0
19:40:13.888;-45.0;691.0
19:40:13.928;274.0;1166.0
19:40:13.968;942.0;1102.0
19:40:14.008;755.0;786.0
19:40:14.048;-39.0;531.0
19:40:14.088;-520.0;407.0
19:40:14.128;-759.0;357.0
19:40:14.168;-703.0;332.0
19:40:14.208;-566.0;271.0
19:40:14.248;-527.0;216.0
19:40:14.288;-510.0;125.0
19:40:14.328;-514.0;66.0
19:40:14.368;-501.0;13.0
19:40:14.408;-495.0;-18.0
19:40:14.448;-427.0;30.0
19:40:14.488;-48.0;-43.0
19:40:14.528;-221.0;-158.0
19:40:14.568;-478.0;-181.0
19:40:14.608;-449.0;687.0
19:40:14.648;2463.0;-4524.0
19:40:14.688;419.0;-2154.0
19:40:14.728;-137.0;-363.0
19:40:14.768;-198.0;590.0
19:40:14.808;270.0;1080.0
19:40:14.848;991.0;1011.0
19:40:14.888;776.0;746.0
19:40:14.928;54.0;498.0
19:40:14.968;-345.0;338.0
19:40:15.008;-504.0;319.0
19:40:15.048;-468.0;296.0
19:40:15.088;-358.0;280.0
19:40:15.128;-310.0;237.0
19:40:15.168;-355.0;178.0
19:40:15.208;-251.0;137.0
19:40:15.248;-221.0;110.0
19:40:15.288;-170.0;176.0
19:40:15.328;-93.0;150.0
19:40:15.368;297.0;83.0
19:40:15.408;53.0;-38.0
19:40:15.448;-199.0;-102.0
19:40:15.488;-183.0;857.0
19:40:15.528;3289.0;-4655.0
19:40:15.568;917.0;-2135.0
19:40:15.608;178.0;-269.0
19:40:15.648;-41.0;727.0
19:40:15.688;286.0;1288.0
19:40:15.728;967.0;1193.0
19:40:15.768;744.0;904.0
19:40:15.808;2.0;603.0
19:40:15.848;-486.0;429.0
19:40:15.888;-670.0;352.0
19:40:15.928;-680.0;309.0
19:40:15.968;-559.0;311.0
19:40:16.008;-503.0;284.0
19:40:16.048;-529.0;218.0
19:40:16.088;-487.0;173.0
19:40:16.128;-446.0;145.0
19:40:16.168;-401.0;88.0
19:40:16.208;-379.0;85.0
19:40:16.248;-30.0;70.0
19:40:16.288;73.0;-23.0
19:40:16.328;-258.0;-43.0
19:40:16.368;-412.0;-13.0
19:40:16.408;2847.0;-3198.0
19:40:16.448;402.0;-2095.0
19:40:16.488;-171.0;-286.0
19:40:16.528;-264.0;628.0
19:40:16.568;68.0;1158.0
19:40:16.608;825.0;1205.0
19:40:16.648;988.0;906.0
19:40:16.688;247.0;583.0
19:40:16.728;-310.0;332.0
19:40:16.768;-547.0;235.0
19:40:16.808;-617.0;233.0
19:40:16.848;-512.0;248.0
19:40:16.888;-404.0;217.0
19:40:16.928;-387.0;171.0
19:40:16.968;-372.0;156.0
19:40:17.008;-365.0;134.0
19:40:17.048;-351.0;125.0
19:40:17.088;-335.0;121.0
19:40:17.128;-67.0;266.0
19:40:17.168;85.0;80.0
19:40:17.208;-226.0;34.0
19:40:17.248;-392.0;19.0
19:40:17.288;963.0;-169.0
19:40:15.924;-252.0;-1532.0
19:40:15.964;-272.0;704.0
19:40:16.004;24.0;1045.0
19:40:16.044;713.0;1148.0
19:40:16.084;1264.0;866.0
19:40:16.124;747.0;530.0
19:40:16.164;37.0;1090.0
19:40:16.204;-306.0;414.0
19:40:16.244;-428.0;101.0
19:40:16.284;-370.0;-63.0
19:40:16.324;-248.0;-195.0
19:40:16.364;-236.0;-112.0
19:40:16.404;-239.0;-296.0
19:40:16.444;-228.0;-389.0
19:40:16.484;-194.0;-398.0
19:40:16.524;-173.0;-344.0
19:40:16.564;176.0;-156.0
19:40:16.604;399.0;-302.0
19:40:16.644;80.0;-282.0
19:40:16.684;-81.0;-233.0
19:40:16.724;644.0;728.0
19:40:16.764;-86.0;-1478.0
19:40:16.804;-176.0;-307.0
19:40:16.844;-55.0;391.0
19:40:16.884;231.0;811.0
19:40:16.924;931.0;918.0
19:40:16.964;1266.0;674.0
19:40:17.004;605.0;361.0
19:40:17.044;-91.0;126.0
19:40:17.084;-435.0;-12.0
19:40:17.124;-560.0;-82.0
19:40:17.164;-521.0;-110.0
19:40:17.204;-506.0;-204.0
19:40:17.244;-491.0;-270.0
19:40:17.284;-493.0;-333.0
19:40:17.324;-482.0;-361.0
19:40:17.364;-498.0;-390.0
19:40:17.404;-141.0;-313.0
19:40:17.444;-44.0;-427.0
19:40:17.484;-387.0;-438.0
19:40:17.524;-607.0;-330.0
19:40:17.564;2329.0;-2785.0
19:40:17.604;-93.0;-2039.0
19:40:17.644;-501.0;-395.0
19:40:17.684;-520.0;538.0
19:40:17.724;-219.0;1060.0
19:40:17.764;514.0;1148.0
19:40:17.804;643.0;870.0
19:40:17.844;-68.0;563.0
19:40:17.884;-582.0;341.0
19:40:17.924;-820.0;265.0
19:40:17.964;-821.0;238.0
19:40:18.004;-686.0;155.0
19:40:18.044;-555.0;50.0
19:40:18.084;-567.0;-38.0
19:40:18.124;-520.0;-86.0
19:40:18.164;-486.0;-89.0
19:40:18.204;-419.0;-120.0
19:40:18.244;-105.0;22.0
19:40:18.284;103.0;-164.0
19:40:18.324;-239.0;-200.0
19:40:18.364;-406.0;-144.0
19:40:18.404;12.0;1296.0
19:40:18.444;-369.0;-1707.0
19:40:18.484;-344.0;-434.0
19:40:18.524;-179.0;367.0
19:40:18.564;174.0;885.0
19:40:18.604;887.0;1042.0
19:40:18.644;1331.0;773.0
19:40:18.684;714.0;414.0
19:40:18.724;76.0;151.0
19:40:18.764;-287.0;30.0
19:40:18.804;-363.0;-18.0
19:40:18.844;-309.0;-76.0
19:40:18.884;-209.0;-101.0
19:40:18.924;-244.0;-162.0
19:40:18.964;-225.0;-217.0
19:40:19.004;-193.0;-232.0
19:40:19.044;-183.0;-236.0
19:40:19.084;-114.0;-191.0
19:40:19.124;275.0;752.0
19:40:19.164;229.0;133.0
19:40:19.204;-41.0;-121.0
19:40:19.244;-181.0;4.0
19:40:19.284;4055.0;-4719.0
19:40:19.324;1132.0;-2515.0
19:40:19.364;230.0;-422.0
19:40:19.404;-57.0;670.0
19:40:19.444;231.0;1277.0
19:40:19.484;881.0;1302.0
19:40:19.524;872.0;994.0
19:40:19.564;108.0;675.0
19:40:19.604;-390.0;409.0
19:40:19.644;-596.0;269.0
19:40:19.684;-605.0;198.0
19:40:19.724;-492.0;120.0
19:40:19.764;-414.0;26.0
19:40:19.804;-398.0;-63.0
19:40:19.844;-369.0;-94.0
19:40:19.884;-370.0;-91.0
19:40:18.642;-302.0;-114.0
19:40:18.682;152.0;-74.0
19:40:18.722;-43.0;-93.0
19:40:18.762;-260.0;-81.0
19:40:18.802;-138.0;1068.0
19:40:18.842;174.0;-3675.0
19:40:18.882;-245.0;-1353.0
19:40:18.922;-169.0;-31.0
19:40:18.962;64.0;748.0
19:40:19.002;616.0;1112.0
19:40:19.042;1253.0;979.0
19:40:19.082;910.0;669.0
19:40:19.122;167.0;421.0
19:40:19.162;-270.0;256.0
19:40:19.202;-394.0;183.0
19:40:19.242;-373.0;156.0
19:40:19.282;-281.0;148.0
19:40:19.322;-292.0;81.0
19:40:19.362;-326.0;6.0
19:40:19.402;-348.0;-17.0
19:40:19.442;-310.0;-55.0
19:40:19.482;-136.0;57.0
19:40:19.522;205.0;-83.0
19:40:19.562;-91.0;-113.0
19:40:19.602;-371.0;-142.0
19:40:19.642;-372.0;1482.0
19:40:19.682;-691.0;-3263.0
19:40:19.722;-603.0;-1366.0
19:40:19.762;-404.0;-179.0
19:40:19.802;-116.0;519.0
19:40:19.842;563.0;809.0
19:40:19.882;1190.0;636.0
19:40:19.922;809.0;302.0
19:40:19.962;140.0;75.0
19:40:20.002;-233.0;-50.0
19:40:20.042;-368.0;-62.0
19:40:20.082;-304.0;-54.0
19:40:20.122;-193.0;-16.0
19:40:20.162;-188.0;-20.0
19:40:20.202;-201.0;-17.0
19:40:20.242;-182.0;-70.0
19:40:20.282;-119.0;-66.0
19:40:20.322;-79.0;-33.0
19:40:20.362;268.0;64.0
19:40:20.402;392.0;-100.0
19:40:20.442;72.0;-130.0
19:40:20.482;-108.0;-84.0
19:40:20.522;2354.0;-1977.0
19:40:20.562;325.0;-1752.0
19:40:20.602;-15.0;-246.0
19:40:20.642;-18.0;569.0
19:40:20.682;223.0;1043.0
19:40:20.722;930.0;1103.0
19:40:20.762;1227.0;788.0
19:40:20.802;594.0;430.0
19:40:20.842;77.0;187.0
19:40:20.882;-141.0;49.0
19:40:20.922;-216.0;1.0
19:40:20.962;-134.0;21.0
19:40:21.002;-119.0;-37.0
19:40:21.042;-148.0;-70.0
19:40:21.082;-123.0;-86.0
19:40:21.122;-133.0;-99.0
19:40:21.162;-120.0;75.0
19:40:21.202;-41.0;38.0
19:40:21.242;360.0;-12.0
19:40:21.282;177.0;-86.0
19:40:21.322;-41.0;-127.0
19:40:21.362;-101.0;803.0
19:40:21.402;4102.0;-4685.0
19:40:21.442;1219.0;-2284.0
19:40:21.482;292.0;-357.0
19:40:21.522;18.0;646.0
19:40:21.562;250.0;1891.0
19:40:21.602;910.0;1417.0
19:40:21.642;860.0;883.0
19:40:21.682;157.0;445.0
19:40:21.722;-330.0;168.0
19:40:21.762;-531.0;870.0
19:40:21.802;-501.0;324.0
19:40:21.842;-430.0;58.0
19:40:21.882;-391.0;-111.0
19:40:21.922;-388.0;-195.0
19:40:21.962;-379.0;446.0
19:40:22.002;-353.0;41.0
19:40:22.042;-336.0;-74.0
19:40:22.082;28.0;-21.0
19:40:22.122;98.0;-159.0
19:40:22.162;-180.0;-144.0
19:40:22.202;-377.0;-80.0
19:40:22.242;1968.0;-1680.0
19:40:22.282;-15.0;-1624.0
19:40:22.322;-353.0;-225.0
19:40:22.362;-298.0;807.0
19:40:22.402;3.0;1094.0
19:40:22.442;667.0;1063.0
19:40:22.482;868.0;728.0
19:40:22.522;185.0;397.0
19:40:22.562;-381.0;152.0
19:40:22.602;-636.0;32.0
19:40:27.328;-703.0;68.0
19:40:27.368;-628.0;18.0
19:40:27.408;-679.0;-3.0
19:40:27.448;-689.0;-51.0
19:40:27.488;-653.0;-88.0
19:40:27.528;-415.0;70.0
19:40:27.568;-123.0;-107.0
19:40:27.608;-426.0;-141.0
19:40:27.648;-600.0;-160.0
19:40:27.688;-531.0;1549.0
19:40:27.728;-585.0;-2239.0
19:40:27.768;-593.0;-849.0
19:40:27.808;-449.0;14.0
19:40:27.848;-106.0;502.0
19:40:27.888;468.0;735.0
19:40:27.928;970.0;514.0
19:40:27.968;445.0;238.0
19:40:28.008;-228.0;37.0
19:40:28.048;-564.0;-45.0
19:40:28.088;-665.0;-18.0
19:40:28.128;-601.0;7.0
19:40:28.168;-499.0;-21.0
19:40:28.208;-458.0;-37.0
19:40:28.248;-515.0;-44.0
19:40:28.288;-525.0;-40.0
19:40:28.328;-214.0;82.0
19:40:28.368;54.0;-98.0
19:40:28.408;-247.0;-132.0
19:40:28.448;-424.0;-159.0
19:40:28.488;21.0;1320.0
19:40:28.528;-414.0;-1802.0
19:40:28.568;-355.0;-589.0
19:40:28.608;-170.0;147.0
19:40:28.648;146.0;1602.0
19:40:28.688;892.0;1443.0
19:40:28.728;1365.0;742.0
19:40:28.768;761.0;282.0
19:40:28.808;63.0;-48.0
19:40:28.848;-212.0;-171.0
19:40:28.888;-307.0;-196.0
19:40:28.928;-233.0;-174.0
19:40:28.968;-158.0;-147.0
19:40:29.008;-179.0;-168.0
19:40:29.048;-214.0;-165.0
19:40:29.088;-213.0;-149.0
19:40:29.128;138.0;5.0
19:40:29.168;343.0;-169.0
19:40:29.208;23.0;-199.0
19:40:29.248;-239.0;-161.0
19:40:29.288;113.0;1395.0
19:40:29.328;-256.0;-1767.0
19:40:29.368;-256.0;-520.0
19:40:29.408;-85.0;188.0
19:40:29.448;260.0;608.0
19:40:29.488;1001.0;719.0
19:40:29.528;1433.0;461.0
19:40:29.568;837.0;201.0
19:40:29.608;199.0;-38.0
19:40:29.648;-114.0;-155.0
19:40:29.688;-185.0;-203.0
19:40:29.728;-73.0;-218.0
19:40:29.768;-24.0;-214.0
19:40:29.808;-12.0;-255.0
19:40:29.848;2.0;-241.0
19:40:29.888;73.0;-216.0
19:40:29.928;308.0;-14.0
19:40:29.968;681.0;-130.0
19:40:30.008;389.0;-128.0
19:40:30.048;112.0;-131.0
19:40:30.088;162.0;1330.0
19:40:30.128;-279.0;-3235.0
19:40:30.168;-198.0;-1223.0
19:40:30.208;-6.0;-2.0
19:40:30.248;296.0;655.0
19:40:30.288;832.0;954.0
19:40:30.328;1390.0;747.0
19:40:30.368;919.0;451.0
19:40:30.408;147.0;189.0
19:40:30.448;-277.0;99.0
19:40:30.488;-459.0;22.0
19:40:30.528;-410.0;506.0
19:40:30.568;-315.0;122.0
19:40:30.608;-288.0;-103.0
19:40:30.648;-350.0;-216.0
19:40:30.688;-410.0;1409.0
19:40:30.728;-55.0;653.0
19:40:30.768;54.0;-18.0
19:40:30.808;-273.0;-318.0
19:40:30.848;-473.0;-358.0
19:40:30.888;1543.0;-1347.0
19:40:30.928;-397.0;-1412.0
19:40:30.968;-599.0;-303.0
19:40:31.008;-515.0;334.0
19:40:31.048;-178.0;741.0
19:40:31.088;521.0;747.0
19:40:31.128;700.0;1202.0
19:40:31.168;24.0;421.0
19:40:31.208;-580.0;14.0
19:40:31.248;-799.0;-169.0
19:40:31.288;-809.0;-269.0
19:40:31.012;-252.0;-1532.0
19:40:31.052;-272.0;704.0
19:40:31.092;24.0;1045.0
19:40:31.132;713.0;1148.0
19:40:31.172;1264.0;866.0
19:40:31.212;747.0;530.0
19:40:31.252;37.0;1090.0
19:40:31.292;-306.0;414.0
19:40:31.332;-428.0;101.0
19:40:31.372;-370.0;-63.0
19:40:31.412;-248.0;-195.0
19:40:31.452;-236.0;-112.0
19:40:31.492;-239.0;-296.0
19:40:31.532;-228.0;-389.0
19:40:31.572;-194.0;-398.0
19:40:31.612;-173.0;-344.0
19:40:31.652;176.0;-156.0
19:40:31.692;399.0;-302.0
19:40:31.732;80.0;-282.0
19:40:31.772;-81.0;-233.0
19:40:31.812;644.0;728.0
19:40:31.852;-86.0;-1478.0
19:40:31.892;-176.0;-307.0
19:40:31.932;-55.0;391.0
