Time;Ecg 1;Ecg 2
18:40:05.890;2455447.0;2442508.0
18:40:05.930;3439247.0;3418220.0
18:40:05.970;3710087.0;3686401.0
18:40:06.010;3646555.0;3622889.0
18:40:06.050;3435870.0;3413580.0
18:40:06.090;3169343.0;3148886.0
18:40:06.130;2890463.0;2871819.0
18:40:06.170;2620143.0;2602969.0
18:40:06.210;2367440.0;2351775.0
18:40:06.250;2135324.0;2121326.0
18:40:06.290;1924187.0;1911563.0
18:40:06.330;1732957.0;1721546.0
18:40:06.370;1560263.0;1549917.0
18:40:06.410;1404469.0;1395162.0
18:40:06.450;1264250.0;1255834.0
18:40:06.490;1137974.0;1130381.0
18:40:06.530;1024507.0;1017991.0
18:40:06.570;922221.0;916455.0
18:40:06.610;829961.0;824633.0
18:40:06.650;748123.0;741825.0
18:40:06.690;671178.0;668067.0
18:40:06.730;604339.0;601241.0
18:40:06.770;544171.0;541276.0
18:40:06.810;489992.0;487410.0
18:40:06.850;441447.0;439174.0
18:40:06.890;397454.0;395495.0
18:40:06.930;357371.0;355482.0
18:40:06.970;321160.0;319090.0
18:40:07.010;288853.0;286806.0
18:40:07.050;259925.0;257983.0
18:40:07.090;234011.0;232122.0
18:40:07.130;210527.0;208677.0
18:40:07.170;189423.0;187712.0
18:40:07.210;170512.0;168967.0
18:40:07.250;153584.0;152267.0
18:40:07.290;138524.0;137463.0
18:40:07.330;124622.0;123392.0
18:40:07.370;112264.0;110811.0
18:40:07.410;100213.0;106909.0
18:40:07.450;90854.0;93171.0
18:40:07.490;82326.0;82325.0
18:40:07.530;74433.0;73524.0
18:40:07.570;67460.0;66410.0
18:40:07.610;61030.0;60233.0
18:40:07.650;54716.0;53931.0
18:40:07.690;48667.0;47536.0
18:40:07.730;43247.0;42012.0
18:40:07.770;38551.0;37430.0
18:40:07.810;34531.0;33671.0
18:40:07.850;31016.0;30219.0
18:40:07.890;27804.0;26991.0
18:40:07.930;24978.0;24201.0
18:40:07.970;22592.0;22220.0
18:40:08.010;20251.0;19982.0
18:40:08.050;18071.0;17677.0
18:40:08.090;18018.0;15958.0
18:40:08.130;14645.0;14544.0
18:40:08.170;13314.0;13293.0
18:40:08.210;12277.0;12363.0
18:40:08.250;11582.0;11783.0
18:40:08.290;11223.0;11670.0
18:40:08.330;10416.0;11059.0
18:40:08.370;9080.0;9627.0
18:40:08.410;7667.0;7907.0
18:40:08.450;6614.0;6840.0
18:40:08.490;5695.0;5986.0
18:40:08.530;4848.0;5158.0
18:40:08.570;4220.0;4293.0
18:40:08.610;3538.0;3613.0
18:40:08.650;2980.0;3053.0
18:40:08.690;2619.0;2887.0
18:40:08.730;2353.0;2705.0
18:40:08.770;1879.0;2082.0
18:40:08.810;2623.0;1568.0
18:40:08.850;540.0;2118.0
18:40:08.890;971.0;1819.0
18:40:08.930;1272.0;1744.0
18:40:08.970;1599.0;1991.0
18:40:09.010;2130.0;2578.0
18:40:09.050;2340.0;2985.0
18:40:09.090;1859.0;2399.0
18:40:09.130;1429.0;1544.0
18:40:09.170;1236.0;1172.0
18:40:09.210;1170.0;1048.0
18:40:09.250;1117.0;857.0
18:40:09.290;1002.0;598.0
18:40:09.330;879.0;239.0
18:40:09.370;642.0;-144.0
18:40:09.410;437.0;-172.0
18:40:09.450;422.0;-338.0
18:40:09.490;-8.0;-853.0
18:40:09.530;622.0;-1404.0
18:40:09.570;-1152.0;-980.0
18:40:09.610;-562.0;-827.0
18:40:09.650;-62.0;-476.0
18:40:09.690;354.0;-3.0
18:40:09.730;811.0;846.0
18:40:09.770;986.0;1329.0
18:40:09.810;633.0;901.0
18:40:09.850;233.0;127.0
18:40:14.343;-14.0;-215.0
18:40:14.383;-259.0;-383.0
18:40:14.423;-169.0;24.0
18:40:14.463;136.0;584.0
18:40:14.503;-31.0;272.0
18:40:14.543;8.0;-7.0
18:40:14.583;-1124.0;6316.0
18:40:14.623;-421.0;2855.0
18:40:14.663;37.0;1125.0
18:40:14.703;426.0;560.0
18:40:14.743;852.0;558.0
18:40:14.783;1079.0;819.0
18:40:14.823;651.0;367.0
18:40:14.863;22.0;-660.0
18:40:14.903;-380.0;-1195.0
18:40:14.943;-554.0;-1211.0
18:40:14.983;-569.0;-1151.0
18:40:15.023;-559.0;-1138.0
18:40:15.063;-522.0;-1144.0
18:40:15.103;-487.0;-1095.0
18:40:15.143;-438.0;-987.0
18:40:15.183;-217.0;-377.0
18:40:15.223;-267.0;-393.0
18:40:15.263;-348.0;-629.0
18:40:15.303;1258.0;-893.0
18:40:15.343;-479.0;-314.0
18:40:15.383;-136.0;-89.0
18:40:15.423;174.0;220.0
18:40:15.463;682.0;728.0
18:40:15.503;1377.0;1592.0
18:40:15.543;1574.0;1960.0
18:40:15.583;1103.0;1468.0
18:40:15.623;549.0;543.0
18:40:15.663;180.0;148.0
18:40:15.703;-48.0;-40.0
18:40:15.743;-277.0;-336.0
18:40:15.783;-510.0;-569.0
18:40:15.823;-700.0;-829.0
18:40:15.863;-808.0;-979.0
18:40:15.903;-859.0;-1028.0
18:40:15.943;-801.0;-729.0
18:40:15.983;-719.0;-511.0
18:40:16.023;-795.0;-795.0
18:40:16.063;106.0;-1032.0
18:40:16.103;-1726.0;-189.0
18:40:16.143;-932.0;-195.0
18:40:16.183;-312.0;-71.0
18:40:16.223;275.0;337.0
18:40:16.263;812.0;965.0
18:40:16.303;1155.0;1510.0
18:40:16.343;892.0;1158.0
18:40:16.383;476.0;362.0
18:40:16.423;290.0;-7.0
18:40:16.463;332.0;8.0
18:40:16.503;388.0;14.0
18:40:16.543;360.0;-97.0
18:40:16.583;265.0;-235.0
18:40:16.623;172.0;-326.0
18:40:16.663;114.0;-355.0
18:40:16.703;-39.0;-258.0
18:40:16.743;-127.0;-194.0
18:40:16.783;-328.0;-765.0
18:40:16.823;-156.0;-1037.0
18:40:16.863;-2129.0;612.0
18:40:16.903;-1291.0;-271.0
18:40:16.943;-631.0;-488.0
18:40:16.983;-101.0;-280.0
18:40:17.023;491.0;334.0
18:40:17.063;877.0;916.0
18:40:17.103;613.0;682.0
18:40:17.143;146.0;-89.0
18:40:17.183;-131.0;-429.0
18:40:17.223;-209.0;-392.0
18:40:17.263;-183.0;-245.0
18:40:17.303;-147.0;-267.0
18:40:17.343;-54.0;-209.0
18:40:17.383;-15.0;-288.0
18:40:17.423;115.0;-115.0
18:40:17.463;214.0;3.0
18:40:17.503;319.0;309.0
18:40:17.543;475.0;565.0
18:40:17.583;189.0;40.0
18:40:17.623;161.0;-311.0
18:40:17.663;-1404.0;5300.0
18:40:17.703;-738.0;1982.0
18:40:17.743;-288.0;341.0
18:40:17.783;0.0;-225.0
18:40:17.823;500.0;-95.0
18:40:17.863;880.0;334.0
18:40:17.903;622.0;224.0
18:40:17.943;65.0;-540.0
18:40:17.983;-272.0;-955.0
18:40:18.023;-378.0;-878.0
18:40:18.063;-412.0;-789.0
18:40:18.103;-415.0;-783.0
18:40:18.143;-408.0;-802.0
18:40:18.183;-380.0;-733.0
18:40:18.223;-398.0;-736.0
18:40:18.263;-338.0;-621.0
18:40:18.303;-137.0;-327.0
18:40:16.219;2455447.0;2442508.0
18:40:16.259;3439247.0;3418220.0
18:40:16.299;3710087.0;3686401.0
18:40:16.339;3646555.0;3622889.0
18:40:16.379;3435870.0;3413580.0
18:40:16.419;3169343.0;3148886.0
18:40:16.459;2890463.0;2871819.0
18:40:16.499;2620143.0;2602969.0
18:40:16.539;2367440.0;2351775.0
18:40:16.579;2135324.0;2121326.0
18:40:16.619;1924187.0;1911563.0
18:40:16.659;1732957.0;1721546.0
18:40:16.699;1560263.0;1549917.0
18:40:16.739;1404469.0;1395162.0
18:40:16.779;1264250.0;1255834.0
18:40:16.819;1137974.0;1130381.0
18:40:16.859;1024507.0;1017991.0
18:40:16.899;922221.0;916455.0
18:40:16.939;829961.0;824633.0
18:40:16.979;748123.0;741825.0
18:40:17.019;671178.0;668067.0
18:40:17.059;604339.0;601241.0
18:40:17.099;544171.0;541276.0
18:40:17.139;489992.0;487410.0
18:40:17.179;441447.0;439174.0
18:40:17.219;397454.0;395495.0
18:40:17.259;357371.0;355482.0
18:40:17.299;321160.0;319090.0
18:40:17.339;288853.0;286806.0
18:40:17.379;259925.0;257983.0
18:40:17.419;234011.0;232122.0
18:40:17.459;210527.0;208677.0
18:40:17.499;189423.0;187712.0
18:40:17.539;170512.0;168967.0
18:40:17.579;153584.0;152267.0
18:40:17.619;138524.0;137463.0
18:40:17.659;124622.0;123392.0
18:40:17.699;112264.0;110811.0
18:40:17.739;100213.0;106909.0
18:40:17.779;90854.0;93171.0
18:40:17.819;82326.0;82325.0
18:40:17.859;74433.0;73524.0
18:40:17.899;67460.0;66410.0
18:40:17.939;61030.0;60233.0
18:40:17.979;54716.0;53931.0
18:40:18.019;48667.0;47536.0
18:40:18.059;43247.0;42012.0
18:40:18.099;38551.0;37430.0
18:40:18.139;34531.0;33671.0
18:40:18.179;31016.0;30219.0
18:40:18.219;27804.0;26991.0
18:40:18.259;24978.0;24201.0
18:40:18.299;22592.0;22220.0
18:40:18.339;20251.0;19982.0
18:40:18.379;18071.0;17677.0
18:40:18.419;18018.0;15958.0
18:40:18.459;14645.0;14544.0
18:40:18.499;13314.0;13293.0
18:40:18.539;12277.0;12363.0
18:40:18.579;11582.0;11783.0
18:40:18.619;11223.0;11670.0
18:40:18.659;10416.0;11059.0
18:40:18.699;9080.0;9627.0
18:40:18.739;7667.0;7907.0
18:40:18.779;6614.0;6840.0
18:40:18.819;5695.0;5986.0
18:40:18.859;4848.0;5158.0
18:40:18.899;4220.0;4293.0
18:40:18.939;3538.0;3613.0
18:40:18.979;2980.0;3053.0
18:40:19.019;2619.0;2887.0
18:40:19.059;2353.0;2705.0
18:40:19.099;1879.0;2082.0
18:40:19.139;2623.0;1568.0
18:40:19.179;540.0;2118.0
18:40:19.219;971.0;1819.0
18:40:19.259;1272.0;1744.0
18:40:19.299;1599.0;1991.0
18:40:19.339;2130.0;2578.0
18:40:19.379;2340.0;2985.0
18:40:19.419;1859.0;2399.0
18:40:19.459;1429.0;1544.0
18:40:19.499;1236.0;1172.0
18:40:19.539;1170.0;1048.0
18:40:19.579;1117.0;857.0
18:40:19.619;1002.0;598.0
18:40:19.659;879.0;239.0
18:40:19.699;642.0;-144.0
18:40:19.739;437.0;-172.0
18:40:19.779;422.0;-338.0
18:40:19.819;-8.0;-853.0
18:40:19.859;622.0;-1404.0
18:40:19.899;-1152.0;-980.0
18:40:19.939;-562.0;-827.0
18:40:19.979;-62.0;-476.0
18:40:20.019;354.0;-3.0
18:40:20.059;811.0;846.0
18:40:20.099;986.0;1329.0
18:40:20.139;633.0;901.0
18:40:20.179;233.0;127.0
18:40:25.069;175.0;404.0
18:40:25.109;-1382.0;3622.0
18:40:25.149;-665.0;1474.0
18:40:25.189;61.0;689.0
18:40:25.229;695.0;701.0
18:40:25.269;1328.0;1232.0
18:40:25.309;1700.0;1724.0
18:40:25.349;1373.0;1449.0
18:40:25.389;736.0;455.0
18:40:25.429;309.0;-277.0
18:40:25.469;-44.0;-575.0
18:40:25.509;-163.0;-785.0
18:40:25.549;-322.0;-950.0
18:40:25.589;-447.0;-1123.0
18:40:25.629;-524.0;-1146.0
18:40:25.669;-533.0;-1100.0
18:40:25.709;-472.0;-956.0
18:40:25.749;-373.0;-520.0
18:40:25.789;-317.0;-279.0
18:40:25.829;-393.0;-506.0
18:40:25.869;512.0;-841.0
18:40:25.909;-1140.0;-104.0
18:40:25.949;-549.0;30.0
18:40:25.989;-82.0;212.0
18:40:26.029;411.0;678.0
18:40:26.069;1033.0;1494.0
18:40:26.109;1435.0;2179.0
18:40:26.149;1173.0;1842.0
18:40:26.189;669.0;1008.0
18:40:26.229;362.0;592.0
18:40:26.269;229.0;468.0
18:40:26.309;141.0;299.0
18:40:26.349;-6.0;81.0
18:40:26.389;-69.0;-208.0
18:40:26.429;-286.0;-356.0
18:40:26.469;-481.0;-504.0
18:40:26.509;-596.0;-615.0
18:40:26.549;-637.0;-412.0
18:40:26.589;-586.0;-271.0
18:40:26.629;-708.0;-545.0
18:40:26.669;-75.0;-721.0
18:40:26.709;-1898.0;723.0
18:40:26.749;-1021.0;213.0
18:40:26.789;-380.0;134.0
18:40:26.829;194.0;439.0
18:40:26.869;881.0;1096.0
18:40:26.909;1224.0;1685.0
18:40:26.949;936.0;1398.0
18:40:26.989;414.0;604.0
18:40:27.029;187.0;255.0
18:40:27.069;156.0;356.0
18:40:27.109;294.0;446.0
18:40:27.149;321.0;435.0
18:40:27.189;243.0;305.0
18:40:27.229;190.0;222.0
18:40:27.269;117.0;109.0
18:40:27.309;9.0;-9.0
18:40:27.349;-63.0;113.0
18:40:27.389;-54.0;24.0
18:40:27.429;-374.0;-347.0
18:40:27.469;-223.0;-677.0
18:40:27.509;-2143.0;2289.0
18:40:27.549;-1259.0;707.0
18:40:27.589;-575.0;85.0
18:40:27.629;-48.0;150.0
18:40:27.669;618.0;651.0
18:40:27.709;1072.0;1236.0
18:40:27.749;797.0;1097.0
18:40:27.789;286.0;305.0
18:40:27.829;-33.0;-146.0
18:40:27.869;-153.0;-227.0
18:40:27.909;-190.0;-124.0
18:40:27.949;-163.0;-133.0
18:40:27.989;-136.0;-163.0
18:40:28.029;-33.0;-68.0
18:40:28.069;-30.0;109.0
18:40:28.109;95.0;148.0
18:40:28.149;196.0;241.0
18:40:28.189;440.0;675.0
18:40:28.229;289.0;555.0
18:40:28.269;124.0;125.0
18:40:28.309;1708.0;-458.0
18:40:28.349;-321.0;-85.0
18:40:28.389;-303.0;-115.0
18:40:28.429;-212.0;-17.0
18:40:28.469;43.0;236.0
18:40:28.509;457.0;854.0
18:40:28.549;624.0;1260.0
18:40:28.589;239.0;806.0
18:40:28.629;-220.0;-45.0
18:40:28.669;-479.0;-447.0
18:40:28.709;-491.0;-475.0
18:40:28.749;-473.0;-441.0
18:40:28.789;-408.0;-465.0
18:40:28.829;-413.0;-547.0
18:40:28.869;-372.0;-542.0
18:40:28.909;-314.0;-504.0
18:40:28.949;-145.0;-322.0
18:40:28.989;140.0;281.0
18:40:29.029;-54.0;1.0
18:40:27.894;33.0;-112.0
18:40:27.934;-2.0;-109.0
18:40:27.974;198.0;178.0
18:40:28.014;672.0;911.0
18:40:28.054;864.0;1326.0
18:40:28.094;364.0;801.0
18:40:28.134;-108.0;44.0
18:40:28.174;-315.0;-216.0
18:40:28.214;-423.0;-236.0
18:40:28.254;-390.0;-234.0
18:40:28.294;-358.0;-247.0
18:40:28.334;-297.0;-213.0
18:40:28.374;-262.0;-187.0
18:40:28.414;-236.0;-58.0
18:40:28.454;-52.0;279.0
18:40:28.494;179.0;556.0
18:40:28.534;169.0;294.0
18:40:28.574;508.0;75.0
18:40:28.614;-1442.0;2669.0
18:40:28.654;-481.0;1233.0
18:40:28.694;151.0;689.0
18:40:28.734;547.0;629.0
18:40:28.774;1003.0;917.0
18:40:28.814;1166.0;1328.0
18:40:28.854;668.0;875.0
18:40:28.894;31.0;-75.0
18:40:28.934;-403.0;-677.0
18:40:28.974;-561.0;-746.0
18:40:29.014;-576.0;-716.0
18:40:29.054;-546.0;-735.0
18:40:29.094;-548.0;-747.0
18:40:29.134;-566.0;-734.0
18:40:29.174;-504.0;-443.0
18:40:29.214;-374.0;-181.0
18:40:29.254;-445.0;-459.0
18:40:29.294;87.0;-531.0
18:40:29.334;-1938.0;1697.0
18:40:29.374;-856.0;621.0
18:40:29.414;-143.0;290.0
18:40:29.454;590.0;589.0
18:40:29.494;1375.0;1291.0
18:40:29.534;1828.0;1961.0
18:40:29.574;1472.0;1612.0
18:40:29.614;872.0;698.0
18:40:29.654;449.0;118.0
18:40:29.694;162.0;-88.0
18:40:29.734;-21.0;-274.0
18:40:29.774;-127.0;-569.0
18:40:29.814;-268.0;-620.0
18:40:29.854;-267.0;-286.0
18:40:29.894;-682.0;-878.0
18:40:29.934;-898.0;-1199.0
18:40:29.974;-991.0;7453.0
18:40:30.014;-984.0;2603.0
18:40:30.054;-676.0;337.0
18:40:30.094;-259.0;-479.0
18:40:30.134;275.0;-394.0
18:40:30.174;816.0;264.0
18:40:30.214;770.0;320.0
18:40:30.254;187.0;-492.0
18:40:30.294;-94.0;-1022.0
18:40:30.334;-266.0;-979.0
18:40:30.374;-173.0;-924.0
18:40:30.414;-62.0;-818.0
18:40:30.454;79.0;-522.0
18:40:30.494;180.0;-304.0
18:40:30.534;82.0;-732.0
18:40:30.574;293.0;-1161.0
18:40:30.614;-1560.0;566.0
18:40:30.654;-773.0;-430.0
18:40:30.694;-226.0;-749.0
18:40:30.734;154.0;-630.0
18:40:30.774;564.0;-73.0
18:40:30.814;822.0;389.0
18:40:30.854;538.0;58.0
18:40:30.894;104.0;-863.0
18:40:30.934;-205.0;-1221.0
18:40:30.974;-267.0;-1129.0
18:40:31.014;-293.0;-1107.0
18:40:31.054;-294.0;-1164.0
18:40:31.094;-243.0;-839.0
18:40:31.134;-32.0;-446.0
18:40:31.174;-217.0;-808.0
18:40:31.214;-230.0;-948.0
18:40:31.254;-1133.0;7446.0
18:40:31.294;-583.0;2951.0
18:40:31.334;72.0;892.0
18:40:31.374;531.0;198.0
18:40:31.414;1012.0;341.0
18:40:31.454;1337.0;823.0
18:40:31.494;1033.0;623.0
18:40:31.534;506.0;-338.0
18:40:31.574;-7.0;-886.0
18:40:31.614;-316.0;-1087.0
18:40:31.654;-556.0;-1235.0
18:40:31.694;-702.0;-1455.0
18:40:31.734;-807.0;-1546.0
18:40:31.774;-810.0;-1506.0
18:40:31.814;-589.0;-897.0
18:40:31.854;-626.0;-897.0
18:40:28.705;-703.0;-1162.0
18:40:28.745;-3.0;-464.0
18:40:28.785;470.0;121.0
18:40:28.825;948.0;732.0
18:40:28.865;1146.0;1213.0
18:40:28.905;666.0;842.0
18:40:28.945;-73.0;-140.0
18:40:28.985;-476.0;-614.0
18:40:29.025;-615.0;-634.0
18:40:29.065;-743.0;-692.0
18:40:29.105;-680.0;-712.0
18:40:29.145;-684.0;-736.0
18:40:29.185;-650.0;-782.0
18:40:29.225;-595.0;-711.0
18:40:29.265;-483.0;-384.0
18:40:29.305;-202.0;44.0
18:40:29.345;-333.0;-354.0
18:40:29.385;-410.0;-649.0
18:40:29.425;-1664.0;6940.0
18:40:29.465;-783.0;2882.0
18:40:29.505;38.0;1013.0
18:40:29.545;694.0;448.0
18:40:29.585;1260.0;605.0
18:40:29.625;1766.0;1049.0
18:40:29.665;1599.0;921.0
18:40:29.705;968.0;106.0
18:40:29.745;389.0;-559.0
18:40:29.785;4.0;-797.0
18:40:29.825;-313.0;-1014.0
18:40:29.865;-598.0;-1311.0
18:40:29.905;-756.0;-1487.0
18:40:29.945;-807.0;-1465.0
18:40:29.985;-841.0;-1433.0
18:40:30.025;-812.0;-1322.0
18:40:30.065;-753.0;-1217.0
18:40:30.105;-621.0;-745.0
18:40:30.145;-491.0;-572.0
18:40:30.185;-600.0;-822.0
18:40:30.225;421.0;-1243.0
18:40:30.265;-1422.0;-388.0
18:40:30.305;-738.0;-385.0
18:40:30.345;-161.0;-188.0
18:40:30.385;419.0;379.0
18:40:30.425;991.0;1020.0
18:40:30.465;1327.0;1574.0
18:40:30.505;1120.0;1399.0
18:40:30.545;768.0;710.0
18:40:30.585;543.0;279.0
18:40:30.625;350.0;70.0
18:40:30.665;316.0;-65.0
18:40:30.705;256.0;-309.0
18:40:30.745;84.0;-603.0
18:40:30.785;-139.0;-900.0
18:40:30.825;-345.0;-1110.0
18:40:30.865;-409.0;-1203.0
18:40:30.905;-452.0;-850.0
18:40:30.945;-400.0;-677.0
18:40:30.985;-535.0;-1047.0
18:40:31.025;-169.0;-1232.0
18:40:31.065;-1891.0;124.0
18:40:31.105;-1023.0;-286.0
18:40:31.145;-430.0;-264.0
18:40:31.185;101.0;34.0
18:40:31.225;630.0;792.0
18:40:31.265;930.0;1336.0
18:40:31.305;726.0;1232.0
18:40:31.345;292.0;440.0
18:40:31.385;111.0;73.0
18:40:31.425;142.0;63.0
18:40:31.465;147.0;203.0
18:40:31.505;217.0;187.0
18:40:31.545;224.0;38.0
18:40:31.585;162.0;-55.0
18:40:31.625;77.0;-158.0
18:40:31.665;23.0;73.0
18:40:31.705;61.0;290.0
18:40:31.745;-246.0;-263.0
18:40:31.785;-282.0;-743.0
18:40:31.825;-1798.0;3033.0
18:40:31.865;-1202.0;904.0
18:40:31.905;-705.0;-28.0
18:40:31.945;-285.0;-181.0
18:40:31.985;251.0;218.0
18:40:32.025;668.0;893.0
18:40:32.065;482.0;799.0
18:40:32.105;-3.0;-58.0
18:40:32.145;-340.0;-562.0
18:40:32.185;-394.0;-572.0
18:40:32.225;-444.0;-466.0
18:40:32.265;-354.0;-550.0
18:40:32.305;-275.0;-532.0
18:40:32.345;-233.0;-471.0
18:40:32.385;-76.0;-330.0
18:40:32.425;153.0;179.0
18:40:32.465;350.0;481.0
18:40:32.505;258.0;180.0
18:40:32.545;416.0;-78.0
18:40:32.585;-1139.0;4075.0
18:40:32.625;-387.0;1762.0
18:40:32.665;90.0;613.0
18:40:32.580;368.0;209.0
18:40:32.620;688.0;504.0
18:40:32.660;452.0;-32.0
18:40:32.700;206.0;-257.0
18:40:32.740;-23.0;-410.0
18:40:32.780;-220.0;-633.0
18:40:32.820;-479.0;-911.0
18:40:32.860;-649.0;-1039.0
18:40:32.900;-702.0;-1098.0
18:40:32.940;-718.0;-1122.0
18:40:32.980;-548.0;-659.0
18:40:33.020;-533.0;-558.0
18:40:33.060;-646.0;-827.0
18:40:33.100;397.0;-1204.0
18:40:33.140;-1481.0;-404.0
18:40:33.180;-756.0;-328.0
18:40:33.220;-200.0;-135.0
18:40:33.260;343.0;262.0
18:40:33.300;925.0;933.0
18:40:33.340;1200.0;1544.0
18:40:33.380;920.0;1140.0
18:40:33.420;539.0;330.0
18:40:33.460;397.0;22.0
18:40:33.500;363.0;26.0
18:40:33.540;353.0;3.0
18:40:33.580;251.0;-119.0
18:40:33.620;168.0;-273.0
18:40:33.660;37.0;-404.0
18:40:33.700;-46.0;-444.0
18:40:33.740;-127.0;-132.0
18:40:33.780;-507.0;-678.0
18:40:33.820;-781.0;-1111.0
18:40:33.860;283.0;3712.0
18:40:33.900;-445.0;933.0
18:40:33.940;-470.0;-282.0
18:40:33.980;-341.0;-628.0
18:40:34.020;49.0;-304.0
18:40:34.060;554.0;343.0
18:40:34.100;638.0;654.0
18:40:34.140;170.0;7.0
18:40:34.180;-251.0;-665.0
18:40:34.220;-413.0;-774.0
18:40:34.260;-434.0;-652.0
18:40:34.300;-369.0;-601.0
18:40:34.340;-280.0;-516.0
18:40:34.380;-130.0;-338.0
18:40:34.420;15.0;-177.0
18:40:34.460;71.0;-117.0
18:40:34.500;140.0;165.0
18:40:34.540;167.0;300.0
18:40:34.580;-28.0;-115.0
18:40:34.620;286.0;-386.0
18:40:34.660;-1925.0;1323.0
18:40:34.700;-1137.0;214.0
18:40:34.740;-644.0;-225.0
18:40:34.780;-199.0;-189.0
18:40:34.820;404.0;345.0
18:40:34.860;778.0;901.0
18:40:34.900;517.0;714.0
18:40:34.940;-34.0;-126.0
18:40:34.980;-367.0;-573.0
18:40:35.020;-474.0;-569.0
18:40:35.060;-517.0;-571.0
18:40:35.100;-471.0;-598.0
18:40:35.140;-503.0;-636.0
18:40:35.180;-427.0;-627.0
18:40:35.220;-442.0;-621.0
18:40:35.260;-344.0;-475.0
18:40:35.300;-242.0;-302.0
18:40:35.340;45.0;173.0
18:40:35.380;40.0;-64.0
18:40:35.420;80.0;-330.0
18:40:35.460;-1048.0;7630.0
18:40:35.500;-422.0;3219.0
18:40:35.540;165.0;1063.0
18:40:35.580;546.0;219.0
18:40:35.620;981.0;136.0
18:40:35.660;1230.0;473.0
18:40:35.700;878.0;245.0
18:40:35.740;231.0;-716.0
18:40:35.780;-215.0;-1370.0
18:40:35.820;-457.0;-1502.0
18:40:35.860;-485.0;-1417.0
18:40:35.900;-491.0;-1353.0
18:40:35.940;-481.0;-1280.0
18:40:35.980;-483.0;-1174.0
18:40:36.020;-474.0;-1043.0
18:40:36.060;-439.0;-945.0
18:40:36.100;-251.0;-451.0
18:40:36.140;-254.0;-387.0
18:40:36.180;-325.0;-630.0
18:40:36.220;1385.0;-943.0
18:40:36.260;-533.0;-387.0
18:40:36.300;-207.0;-286.0
18:40:36.340;230.0;66.0
18:40:36.380;821.0;673.0
18:40:36.420;1472.0;1509.0
18:40:36.460;1690.0;2007.0
18:40:36.500;1219.0;1431.0
18:40:36.540;595.0;564.0
18:40:39.007;178.0;59.0
18:40:39.047;-362.0;-490.0
18:40:39.087;-678.0;-845.0
18:40:39.127;-780.0;-956.0
18:40:39.167;-827.0;-999.0
18:40:39.207;-742.0;-589.0
18:40:39.247;-555.0;-355.0
18:40:39.287;-742.0;-633.0
18:40:39.327;-541.0;-822.0
18:40:39.367;-2098.0;3373.0
18:40:39.407;-1142.0;1315.0
18:40:39.447;-431.0;354.0
18:40:39.487;188.0;280.0
18:40:39.527;842.0;762.0
18:40:39.567;1433.0;1516.0
18:40:39.607;1427.0;1569.0
18:40:39.647;943.0;696.0
18:40:39.687;639.0;26.0
18:40:39.727;483.0;-152.0
18:40:39.767;395.0;-264.0
18:40:39.807;303.0;-488.0
18:40:39.847;137.0;-824.0
18:40:39.887;-55.0;-994.0
18:40:39.927;-100.0;-1160.0
18:40:39.967;-85.0;-621.0
18:40:40.007;-406.0;-1029.0
18:40:40.047;-528.0;-1323.0
18:40:40.087;1079.0;1119.0
18:40:40.127;-84.0;-139.0
18:40:40.167;-218.0;-477.0
18:40:40.207;-185.0;-437.0
18:40:40.247;108.0;28.0
18:40:40.287;541.0;865.0
18:40:40.327;698.0;1331.0
18:40:40.367;301.0;707.0
18:40:40.407;-106.0;-74.0
18:40:40.447;-301.0;-386.0
18:40:40.487;-316.0;-327.0
18:40:40.527;-224.0;-225.0
18:40:40.567;-115.0;-155.0
18:40:40.607;-17.0;-104.0
18:40:40.647;59.0;-29.0
18:40:40.687;170.0;323.0
18:40:40.727;189.0;391.0
18:40:40.767;-20.0;-32.0
18:40:40.807;834.0;-501.0
18:40:40.847;-1258.0;1.0
18:40:40.887;-702.0;-248.0
18:40:40.927;-363.0;-170.0
18:40:40.967;-50.0;83.0
18:40:41.007;463.0;756.0
18:40:41.047;707.0;1315.0
18:40:41.087;285.0;917.0
18:40:41.127;-197.0;66.0
18:40:41.167;-440.0;-305.0
18:40:41.207;-531.0;-316.0
18:40:41.247;-544.0;-248.0
18:40:41.287;-501.0;-256.0
18:40:41.327;-509.0;-324.0
18:40:41.367;-448.0;-273.0
18:40:41.407;-393.0;-236.0
18:40:41.447;-154.0;375.0
18:40:41.487;-154.0;325.0
18:40:41.527;-152.0;83.0
18:40:41.567;1664.0;-139.0
18:40:41.607;-109.0;449.0
18:40:41.647;133.0;552.0
18:40:41.687;381.0;759.0
18:40:41.727;717.0;1112.0
18:40:41.767;1182.0;1728.0
18:40:41.807;1266.0;2053.0
18:40:41.847;607.0;1379.0
18:40:41.887;-109.0;308.0
18:40:41.927;-604.0;-260.0
18:40:41.967;-838.0;-399.0
18:40:42.007;-879.0;-507.0
18:40:42.047;-911.0;-581.0
18:40:42.087;-938.0;-680.0
18:40:42.127;-913.0;-696.0
18:40:42.167;-793.0;-600.0
18:40:42.207;-658.0;-470.0
18:40:42.247;-444.0;117.0
18:40:42.287;-460.0;-105.0
18:40:42.327;-418.0;-394.0
18:40:42.367;1376.0;2567.0
18:40:42.407;324.0;987.0
18:40:42.447;175.0;445.0
18:40:42.487;321.0;608.0
18:40:42.527;780.0;872.0
18:40:42.567;1318.0;1620.0
18:40:42.607;1465.0;1867.0
18:40:42.647;1024.0;1150.0
18:40:42.687;528.0;186.0
18:40:42.727;196.0;-135.0
18:40:42.767;-90.0;-381.0
18:40:42.807;-345.0;-649.0
18:40:42.847;-520.0;-856.0
18:40:42.887;-652.0;-1052.0
18:40:42.927;-723.0;-1096.0
18:40:42.967;-704.0;-1024.0
18:40:41.863;-644.0;-716.0
18:40:41.903;1197.0;1566.0
18:40:41.943;-96.0;184.0
18:40:41.983;-327.0;-320.0
18:40:42.023;-311.0;-305.0
18:40:42.063;88.0;185.0
18:40:42.103;620.0;982.0
18:40:42.143;774.0;1374.0
18:40:42.183;306.0;803.0
18:40:42.223;-141.0;-3.0
18:40:42.263;-358.0;-245.0
18:40:42.303;-366.0;-157.0
18:40:42.343;-299.0;-109.0
18:40:42.383;-270.0;-95.0
18:40:42.423;-173.0;-7.0
18:40:42.463;12.0;153.0
18:40:42.503;57.0;179.0
18:40:42.543;219.0;547.0
18:40:42.583;331.0;761.0
18:40:42.623;55.0;249.0
18:40:42.663;-54.0;-179.0
18:40:42.703;-1882.0;4583.0
18:40:42.743;-1196.0;1697.0
18:40:42.783;-684.0;319.0
18:40:42.823;-278.0;-79.0
18:40:42.863;349.0;264.0
18:40:42.903;817.0;848.0
18:40:42.943;649.0;766.0
18:40:42.983;135.0;-89.0
18:40:43.023;-227.0;-714.0
18:40:43.063;-329.0;-726.0
18:40:43.103;-314.0;-687.0
18:40:43.143;-290.0;-715.0
18:40:43.183;-269.0;-684.0
18:40:43.223;-242.0;-710.0
18:40:43.263;-165.0;-540.0
18:40:43.303;33.0;-319.0
18:40:43.343;202.0;345.0
18:40:43.383;158.0;76.0
18:40:43.423;126.0;-149.0
18:40:43.463;1174.0;5247.0
18:40:43.503;543.0;2166.0
18:40:43.543;440.0;683.0
18:40:43.583;420.0;65.0
18:40:43.623;622.0;56.0
18:40:43.663;862.0;496.0
18:40:43.703;703.0;556.0
18:40:43.743;46.0;-249.0
18:40:43.783;-445.0;-971.0
18:40:43.823;-642.0;-1168.0
18:40:43.863;-677.0;-1094.0
18:40:43.903;-598.0;-1005.0
18:40:43.943;-575.0;-994.0
18:40:43.983;-561.0;-943.0
18:40:44.023;-517.0;-888.0
18:40:44.063;-414.0;-744.0
18:40:44.103;-270.0;-361.0
18:40:44.143;-147.0;-96.0
18:40:44.183;-189.0;-263.0
18:40:44.223;448.0;-270.0
18:40:44.263;-1464.0;1230.0
18:40:44.303;-463.0;723.0
18:40:44.343;231.0;607.0
18:40:44.383;735.0;807.0
18:40:44.423;1328.0;1391.0
18:40:44.463;1548.0;1863.0
18:40:44.503;1030.0;1348.0
18:40:44.543;371.0;217.0
18:40:44.583;-173.0;-367.0
18:40:44.623;-481.0;-621.0
18:40:44.663;-696.0;-706.0
18:40:44.703;-788.0;-816.0
18:40:44.743;-838.0;-859.0
18:40:44.783;-804.0;-922.0
18:40:44.823;-714.0;-737.0
18:40:44.863;-612.0;-636.0
18:40:44.903;-387.0;-114.0
18:40:44.943;-486.0;-433.0
18:40:44.983;-481.0;-641.0
18:40:45.023;504.0;5251.0
18:40:45.063;96.0;2032.0
18:40:45.103;157.0;455.0
18:40:45.143;433.0;32.0
18:40:45.183;902.0;332.0
18:40:45.223;1471.0;1036.0
18:40:45.263;1509.0;1279.0
18:40:45.303;977.0;391.0
18:40:45.343;558.0;-523.0
18:40:45.383;238.0;-838.0
18:40:45.423;23.0;-950.0
18:40:45.463;-209.0;-1036.0
18:40:45.503;-421.0;-1201.0
18:40:45.543;-632.0;-1316.0
18:40:45.583;-755.0;-1319.0
18:40:45.623;-748.0;-974.0
18:40:45.663;-537.0;-465.0
18:40:45.703;-733.0;-813.0
18:40:45.743;-741.0;-1043.0
18:40:45.783;-1902.0;7034.0
18:40:45.823;-1177.0;2631.0
18:40:50.933;-557.0;498.0
18:40:50.973;267.0;615.0
18:40:51.013;289.0;-144.0
18:40:51.053;307.0;-528.0
18:40:51.093;443.0;-451.0
18:40:51.133;520.0;-354.0
18:40:51.173;524.0;-378.0
18:40:51.213;497.0;-501.0
18:40:51.253;386.0;-559.0
18:40:51.293;267.0;-660.0
18:40:51.333;198.0;-609.0
18:40:51.373;111.0;-348.0
18:40:51.413;-321.0;-953.0
18:40:51.453;-533.0;-1269.0
18:40:51.493;-375.0;7290.0
18:40:51.533;-638.0;2485.0
18:40:51.573;-412.0;98.0
18:40:51.613;-162.0;-711.0
18:40:51.653;327.0;-619.0
18:40:51.693;886.0;41.0
18:40:51.733;934.0;312.0
18:40:51.773;367.0;-320.0
18:40:51.813;-71.0;-965.0
18:40:51.853;-223.0;-1062.0
18:40:51.893;-247.0;-977.0
18:40:51.933;-216.0;-868.0
18:40:51.973;-174.0;-731.0
18:40:52.013;-164.0;-535.0
18:40:52.053;-49.0;-530.0
18:40:52.093;107.0;-343.0
18:40:52.133;300.0;310.0
18:40:52.173;125.0;-7.0
18:40:52.213;-73.0;-364.0
18:40:52.253;1704.0;2096.0
18:40:52.293;373.0;516.0
18:40:52.333;-55.0;-159.0
18:40:52.373;-207.0;-392.0
18:40:52.413;-44.0;-180.0
18:40:52.453;402.0;490.0
18:40:52.493;445.0;798.0
18:40:52.533;-56.0;142.0
18:40:52.573;-481.0;-664.0
18:40:52.613;-641.0;-891.0
18:40:52.653;-613.0;-902.0
18:40:52.693;-599.0;-963.0
18:40:52.733;-556.0;-1010.0
18:40:52.773;-517.0;-982.0
18:40:52.813;-463.0;-939.0
18:40:52.853;-340.0;-786.0
18:40:52.893;-150.0;-114.0
18:40:52.933;-181.0;-452.0
18:40:52.973;-112.0;-652.0
18:40:53.013;1529.0;2687.0
18:40:53.053;583.0;916.0
18:40:53.093;479.0;282.0
18:40:53.133;502.0;179.0
18:40:53.173;733.0;431.0
18:40:53.213;1111.0;1023.0
18:40:53.253;1044.0;1276.0
18:40:53.293;386.0;492.0
18:40:53.333;-259.0;-479.0
18:40:53.373;-660.0;-866.0
18:40:53.413;-820.0;-910.0
18:40:53.453;-854.0;-894.0
18:40:53.493;-851.0;-902.0
18:40:53.533;-840.0;-871.0
18:40:53.573;-776.0;-833.0
18:40:53.613;-728.0;-821.0
18:40:53.653;-484.0;-261.0
18:40:53.693;-452.0;-213.0
18:40:53.733;-599.0;-469.0
18:40:53.773;660.0;-705.0
18:40:53.813;-1078.0;-24.0
18:40:53.853;-541.0;-53.0
18:40:53.893;-46.0;262.0
18:40:53.933;550.0;915.0
18:40:53.973;1292.0;1686.0
18:40:54.013;1672.0;2303.0
18:40:54.053;1211.0;1795.0
18:40:54.093;557.0;727.0
18:40:54.133;80.0;115.0
18:40:54.173;-94.0;-110.0
18:40:54.213;-339.0;-254.0
18:40:54.253;-529.0;-473.0
18:40:54.293;-704.0;-679.0
18:40:54.333;-763.0;-737.0
18:40:54.373;-760.0;-755.0
18:40:54.413;-666.0;-443.0
18:40:54.453;-489.0;-193.0
18:40:54.493;-612.0;-572.0
18:40:54.533;-556.0;-807.0
18:40:54.573;-2047.0;5423.0
18:40:54.613;-1126.0;2074.0
18:40:54.653;-430.0;553.0
18:40:54.693;109.0;101.0
18:40:54.733;740.0;445.0
18:40:54.773;1226.0;1067.0
18:40:54.813;1169.0;1099.0
18:40:54.853;745.0;289.0
18:40:54.893;457.0;-160.0
18:40:53.703;379.0;-270.0
18:40:53.743;-113.0;-914.0
18:40:53.783;-428.0;-1277.0
18:40:53.823;-542.0;-1375.0
18:40:53.863;-525.0;-1308.0
18:40:53.903;-350.0;-769.0
18:40:53.943;-444.0;-976.0
18:40:53.983;-453.0;-1176.0
18:40:54.023;970.0;3025.0
18:40:54.063;72.0;615.0
18:40:54.103;52.0;-289.0
18:40:54.143;193.0;-392.0
18:40:54.183;544.0;-8.0
18:40:54.223;1007.0;784.0
18:40:54.263;1144.0;1217.0
18:40:54.303;796.0;619.0
18:40:54.343;369.0;-93.0
18:40:54.383;203.0;-409.0
18:40:54.423;225.0;-371.0
18:40:54.463;192.0;-396.0
18:40:54.503;55.0;-538.0
18:40:54.543;109.0;-727.0
18:40:54.583;-58.0;-715.0
18:40:54.623;-185.0;-543.0
18:40:54.663;-308.0;-495.0
18:40:54.703;-632.0;-1029.0
18:40:54.743;-450.0;-1347.0
18:40:54.783;-2205.0;1206.0
18:40:54.823;-1328.0;4.0
18:40:54.863;-727.0;-447.0
18:40:54.903;-227.0;-335.0
18:40:54.943;438.0;274.0
18:40:54.983;876.0;986.0
18:40:55.023;676.0;874.0
18:40:55.063;192.0;-23.0
18:40:55.103;-103.0;-467.0
18:40:55.143;-156.0;-512.0
18:40:55.183;-184.0;-432.0
18:40:55.223;-170.0;-446.0
18:40:55.263;-56.0;-347.0
18:40:55.303;64.0;-218.0
18:40:55.343;207.0;-61.0
18:40:55.383;306.0;254.0
18:40:55.423;342.0;415.0
18:40:55.463;91.0;-23.0
18:40:55.503;499.0;-142.0
18:40:55.543;-1640.0;1441.0
18:40:55.583;-826.0;416.0
18:40:55.623;-390.0;-39.0
18:40:55.663;-19.0;-52.0
18:40:55.703;566.0;455.0
18:40:55.743;820.0;969.0
18:40:55.783;516.0;676.0
18:40:55.823;-66.0;-154.0
18:40:55.863;-412.0;-655.0
18:40:55.903;-566.0;-646.0
18:40:55.943;-611.0;-599.0
18:40:55.983;-621.0;-683.0
18:40:56.023;-613.0;-729.0
18:40:56.063;-516.0;-673.0
18:40:56.103;-458.0;-588.0
18:40:56.143;-199.0;95.0
18:40:56.183;-207.0;-42.0
18:40:56.223;-124.0;-325.0
18:40:56.263;2057.0;754.0
18:40:56.303;625.0;276.0
18:40:56.343;525.0;196.0
18:40:56.383;537.0;318.0
18:40:56.423;760.0;588.0
18:40:56.463;1146.0;1175.0
18:40:56.503;1169.0;1539.0
18:40:56.543;522.0;716.0
18:40:56.583;-162.0;-390.0
18:40:56.623;-535.0;-894.0
18:40:56.663;-655.0;-1019.0
18:40:56.703;-663.0;-1002.0
18:40:56.743;-687.0;-1108.0
18:40:56.783;-639.0;-1101.0
18:40:56.823;-616.0;-1094.0
18:40:56.863;-360.0;-493.0
18:40:56.903;-388.0;-477.0
18:40:56.943;-454.0;-747.0
18:40:56.983;1061.0;-1097.0
18:40:57.023;-766.0;-685.0
18:40:57.063;-447.0;-495.0
18:40:57.103;-119.0;-154.0
18:40:57.143;393.0;468.0
18:40:57.183;1026.0;1393.0
18:40:57.223;1272.0;2108.0
18:40:57.263;957.0;1700.0
18:40:57.303;510.0;782.0
18:40:57.343;175.0;263.0
18:40:57.383;-1.0;109.0
18:40:57.423;-94.0;-44.0
18:40:57.463;-276.0;-327.0
18:40:57.503;-373.0;-629.0
18:40:57.543;-464.0;-719.0
18:40:57.583;-567.0;-799.0
18:40:57.623;-639.0;-812.0
18:40:57.663;-479.0;-391.0
18:41:18.016;2453730.0;2444550.0
18:41:18.056;3435264.0;3422483.0
18:41:18.096;3705237.0;3691483.0
18:41:18.136;3641430.0;3627814.0
18:41:18.176;3430627.0;3417748.0
18:41:18.216;3164258.0;3152360.0
18:41:18.256;2886221.0;2875322.0
18:41:18.296;2616834.0;2606966.0
18:41:18.336;2364874.0;2355963.0
18:41:18.376;2133350.0;2125312.0
18:41:18.416;1922647.0;1915532.0
18:41:18.456;1731636.0;1725285.0
18:41:18.496;1558880.0;1553059.0
18:41:18.536;1404214.0;1397532.0
18:41:18.576;1261858.0;1258658.0
18:41:18.616;1136025.0;1132487.0
18:41:18.656;1022679.0;1019141.0
18:41:18.696;920657.0;917403.0
18:41:18.736;829061.0;826281.0
18:41:18.776;746611.0;744407.0
18:41:18.816;671750.0;669888.0
18:41:18.856;604141.0;602070.0
18:41:18.896;543403.0;541298.0
18:41:18.936;488945.0;487050.0
18:41:18.976;440016.0;438320.0
18:41:19.016;396003.0;394400.0
18:41:19.056;356430.0;354822.0
18:41:19.096;320795.0;319261.0
18:41:19.136;288787.0;287342.0
18:41:19.176;260017.0;258658.0
18:41:19.216;234160.0;232905.0
18:41:19.256;210868.0;209747.0
18:41:19.296;189969.0;188955.0
18:41:19.336;171163.0;170511.0
18:41:19.376;153837.0;153063.0
18:41:19.416;138306.0;137436.0
18:41:19.456;123476.0;133223.0
18:41:19.496;111234.0;115035.0
18:41:19.536;100489.0;100936.0
18:41:19.576;90634.0;89768.0
18:41:19.616;81929.0;80592.0
18:41:19.656;74220.0;73028.0
18:41:19.696;66908.0;65985.0
18:41:19.736;59786.0;58713.0
18:41:19.776;53410.0;52063.0
18:41:19.816;47892.0;46558.0
18:41:19.856;43002.0;41804.0
18:41:19.896;38728.0;37596.0
18:41:19.936;34882.0;33678.0
18:41:19.976;31390.0;30287.0
18:41:20.016;28273.0;27237.0
18:41:20.056;25529.0;24596.0
18:41:20.096;23120.0;22209.0
18:41:20.136;20971.0;20121.0
18:41:20.176;18895.0;18139.0
18:41:20.216;17272.0;16815.0
18:41:20.256;15364.0;14988.0
18:41:20.296;13584.0;13032.0
18:41:20.336;13846.0;11254.0
18:41:20.376;10594.0;10224.0
18:41:20.416;9389.0;9005.0
18:41:20.456;8458.0;8188.0
18:41:20.496;7904.0;7723.0
18:41:20.536;7587.0;7723.0
18:41:20.576;7205.0;7672.0
18:41:20.616;6228.0;6727.0
18:41:20.656;5127.0;5250.0
18:41:20.696;4300.0;4285.0
18:41:20.736;3755.0;3733.0
18:41:20.776;3411.0;3403.0
18:41:20.816;3048.0;2998.0
18:41:20.856;2663.0;2551.0
18:41:20.896;2444.0;2296.0
18:41:20.936;2122.0;2168.0
18:41:20.976;2000.0;1906.0
18:41:21.016;1915.0;1769.0
18:41:21.056;1845.0;1740.0
18:41:21.096;1822.0;1679.0
18:41:21.136;1833.0;1952.0
18:41:21.176;1427.0;1326.0
18:41:21.216;1077.0;824.0
18:41:21.256;714.0;9713.0
18:41:21.296;511.0;4273.0
18:41:21.336;572.0;1476.0
18:41:21.376;646.0;194.0
18:41:21.416;877.0;45.0
18:41:21.456;1253.0;637.0
18:41:21.496;1260.0;937.0
18:41:21.536;778.0;220.0
18:41:21.576;311.0;-631.0
18:41:21.616;75.0;-960.0
18:41:21.656;21.0;-950.0
18:41:21.696;32.0;-909.0
18:41:21.736;48.0;-967.0
18:41:21.776;-1.0;-971.0
18:41:21.816;37.0;-901.0
18:41:21.856;59.0;-832.0
18:41:21.896;101.0;-763.0
18:41:21.936;266.0;-414.0
18:41:21.976;548.0;237.0
18:41:23.398;434.0;-25.0
18:41:23.438;-74.0;-390.0
18:41:23.478;-96.0;-430.0
18:41:23.518;80.0;-216.0
18:41:23.558;500.0;448.0
18:41:23.598;898.0;1323.0
18:41:23.638;857.0;1551.0
18:41:23.678;380.0;666.0
18:41:23.718;51.0;-28.0
18:41:23.758;-126.0;-258.0
18:41:23.798;-83.0;-120.0
18:41:23.838;-39.0;-111.0
18:41:23.878;40.0;-86.0
18:41:23.918;161.0;-24.0
18:41:23.958;205.0;-4.0
18:41:23.998;224.0;50.0
18:41:24.038;202.0;34.0
18:41:24.078;251.0;278.0
18:41:24.118;241.0;310.0
18:41:24.158;-49.0;-194.0
18:41:24.198;-30.0;-597.0
18:41:24.238;-1659.0;4307.0
18:41:24.278;-1009.0;1496.0
18:41:24.318;-509.0;153.0
18:41:24.358;-145.0;-254.0
18:41:24.398;412.0;89.0
18:41:24.438;797.0;866.0
18:41:24.478;798.0;1083.0
18:41:24.518;272.0;242.0
18:41:24.558;-85.0;-362.0
18:41:24.598;-286.0;-526.0
18:41:24.638;-343.0;-525.0
18:41:24.678;-411.0;-536.0
18:41:24.718;-390.0;-574.0
18:41:24.758;-398.0;-514.0
18:41:24.798;-371.0;-521.0
18:41:24.838;-276.0;-422.0
18:41:24.878;-108.0;-135.0
18:41:24.918;68.0;117.0
18:41:24.958;357.0;609.0
18:41:24.998;233.0;264.0
18:41:25.038;187.0;-20.0
18:41:25.078;638.0;7091.0
18:41:25.118;223.0;2932.0
18:41:25.158;275.0;834.0
18:41:25.198;391.0;2.0
18:41:25.238;493.0;-102.0
18:41:25.278;771.0;388.0
18:41:25.318;731.0;599.0
18:41:25.358;296.0;-84.0
18:41:25.398;-245.0;-1043.0
18:41:25.438;-522.0;-1404.0
18:41:25.478;-525.0;-1390.0
18:41:25.518;-496.0;-1350.0
18:41:25.558;-445.0;-1323.0
18:41:25.598;-401.0;-1284.0
18:41:25.638;-344.0;-1230.0
18:41:25.678;-316.0;-1123.0
18:41:25.718;-284.0;-945.0
18:41:25.758;-197.0;-612.0
18:41:25.798;-81.0;-384.0
18:41:25.838;-133.0;-621.0
18:41:25.878;379.0;-590.0
18:41:25.918;-1300.0;996.0
18:41:25.958;-343.0;541.0
18:41:25.998;263.0;384.0
18:41:26.038;675.0;456.0
18:41:26.078;1108.0;978.0
18:41:26.118;1370.0;1537.0
18:41:26.158;964.0;1261.0
18:41:26.198;222.0;166.0
18:41:26.238;-289.0;-529.0
18:41:26.278;-458.0;-685.0
18:41:26.318;-544.0;-761.0
18:41:26.358;-493.0;-773.0
18:41:26.398;-471.0;-840.0
18:41:26.438;-434.0;-798.0
18:41:26.478;-420.0;-754.0
18:41:26.518;-352.0;-657.0
18:41:26.558;-199.0;-433.0
18:41:26.598;-57.0;56.0
18:41:26.638;-189.0;-278.0
18:41:26.678;-205.0;-393.0
18:41:26.718;-157.0;8551.0
18:41:26.758;-43.0;3783.0
18:41:26.798;339.0;1357.0
18:41:26.838;658.0;493.0
18:41:26.878;1111.0;419.0
18:41:26.918;1553.0;1007.0
18:41:26.958;1587.0;1301.0
18:41:26.998;969.0;506.0
18:41:27.038;261.0;-503.0
18:41:27.078;-70.0;-844.0
18:41:27.118;-362.0;-1005.0
18:41:27.158;-606.0;-1211.0
18:41:27.198;-753.0;-1384.0
18:41:27.238;-837.0;-1484.0
18:41:27.278;-878.0;-1423.0
18:41:27.318;-841.0;-1333.0
18:41:27.358;-836.0;-1242.0
18:41:30.070;-713.0;-865.0
18:41:30.110;415.0;-1358.0
18:41:30.150;-1480.0;-545.0
18:41:30.190;-872.0;-574.0
18:41:30.230;-382.0;-409.0
18:41:30.270;100.0;49.0
18:41:30.310;694.0;788.0
18:41:30.350;1083.0;1560.0
18:41:30.390;897.0;1369.0
18:41:30.430;472.0;361.0
18:41:30.470;240.0;-200.0
18:41:30.510;209.0;-174.0
18:41:30.550;269.0;-124.0
18:41:30.590;273.0;-173.0
18:41:30.630;245.0;-226.0
18:41:30.670;115.0;-313.0
18:41:30.710;78.0;-340.0
18:41:30.750;-48.0;-406.0
18:41:30.790;-48.0;17.0
18:41:30.830;-324.0;-368.0
18:41:30.870;-607.0;-850.0
18:41:30.910;1176.0;-135.0
18:41:30.950;-557.0;-665.0
18:41:30.990;-595.0;-616.0
18:41:31.030;-431.0;-480.0
18:41:31.070;-91.0;44.0
18:41:31.110;440.0;876.0
18:41:31.150;683.0;1553.0
18:41:31.190;361.0;1198.0
18:41:31.230;-103.0;262.0
18:41:31.270;-328.0;-204.0
18:41:31.310;-416.0;-332.0
18:41:31.350;-364.0;-345.0
18:41:31.390;-270.0;-322.0
18:41:31.430;-146.0;-309.0
18:41:31.470;-120.0;-289.0
18:41:31.510;25.0;-202.0
18:41:31.550;117.0;-58.0
18:41:31.590;235.0;124.0
18:41:31.630;375.0;493.0
18:41:31.670;138.0;38.0
18:41:31.710;-6.0;-189.0
18:41:31.750;-919.0;9587.0
18:41:31.790;-703.0;3740.0
18:41:31.830;-367.0;802.0
18:41:31.870;-175.0;-419.0
18:41:31.910;220.0;-605.0
18:41:31.950;666.0;-52.0
18:41:31.990;693.0;270.0
18:41:32.030;170.0;-345.0
18:41:32.070;-276.0;-1086.0
18:41:32.110;-426.0;-1247.0
18:41:32.150;-488.0;-1203.0
18:41:32.190;-479.0;-1149.0
18:41:32.230;-457.0;-1113.0
18:41:32.270;-427.0;-1035.0
18:41:32.310;-385.0;-944.0
18:41:32.350;-297.0;-873.0
18:41:32.390;-280.0;-659.0
18:41:32.430;-203.0;-589.0
18:41:32.470;26.0;-329.0
18:41:32.510;378.0;389.0
18:41:32.550;266.0;131.0
18:41:32.590;161.0;-85.0
18:41:32.630;857.0;6460.0
18:41:32.670;275.0;2797.0
18:41:32.710;213.0;852.0
18:41:32.750;236.0;24.0
18:41:32.790;383.0;-33.0
18:41:32.830;771.0;386.0
18:41:32.870;701.0;713.0
18:41:32.910;105.0;91.0
18:41:32.950;-453.0;-794.0
18:41:32.990;-713.0;-1156.0
18:41:33.030;-730.0;-1177.0
18:41:33.070;-701.0;-1121.0
18:41:33.110;-697.0;-1180.0
18:41:33.150;-634.0;-1234.0
18:41:33.190;-568.0;-1181.0
18:41:33.230;-497.0;-1091.0
18:41:33.270;-386.0;-932.0
18:41:33.310;-321.0;-850.0
18:41:33.350;-207.0;-605.0
18:41:33.390;16.0;-233.0
18:41:33.430;-12.0;-513.0
18:41:33.470;88.0;-591.0
18:41:33.510;-837.0;8088.0
18:41:33.550;-241.0;3414.0
18:41:33.590;315.0;1070.0
18:41:33.630;714.0;207.0
18:41:33.670;1058.0;223.0
18:41:33.710;1371.0;768.0
18:41:33.750;1274.0;865.0
18:41:33.790;600.0;-142.0
18:41:33.830;143.0;-952.0
18:41:33.870;-169.0;-1312.0
18:41:33.910;-368.0;-1408.0
18:41:33.950;-446.0;-1457.0
18:41:33.990;-463.0;-1655.0
18:41:34.030;-440.0;-1651.0
18:41:39.371;-408.0;-1507.0
18:41:39.411;-360.0;-937.0
18:41:39.451;-519.0;-913.0
18:41:39.491;-563.0;-1042.0
18:41:39.531;1113.0;-937.0
18:41:39.571;-573.0;-729.0
18:41:39.611;-422.0;-458.0
18:41:39.651;-180.0;-43.0
18:41:39.691;147.0;482.0
18:41:39.731;520.0;1245.0
18:41:39.771;868.0;1995.0
18:41:39.811;623.0;1722.0
18:41:39.851;278.0;876.0
18:41:39.891;170.0;535.0
18:41:39.931;151.0;464.0
18:41:39.971;177.0;400.0
18:41:40.011;130.0;287.0
18:41:40.051;105.0;111.0
18:41:40.091;-1.0;-73.0
18:41:40.131;-137.0;-204.0
18:41:40.171;-277.0;-408.0
18:41:40.211;-403.0;-300.0
18:41:40.251;-370.0;-327.0
18:41:40.291;-639.0;-749.0
18:41:40.331;-596.0;-1044.0
18:41:40.371;-2051.0;3206.0
18:41:40.411;-1240.0;1019.0
18:41:40.451;-607.0;-1.0
18:41:40.491;-203.0;-173.0
18:41:40.531;319.0;211.0
18:41:40.571;776.0;933.0
18:41:40.611;765.0;1087.0
18:41:40.651;323.0;263.0
18:41:40.691;57.0;-398.0
18:41:40.731;-57.0;-518.0
18:41:40.771;-67.0;-551.0
18:41:40.811;-34.0;-577.0
18:41:40.851;47.0;-573.0
18:41:40.891;103.0;-480.0
18:41:40.931;197.0;-323.0
18:41:40.971;235.0;-324.0
18:41:41.011;339.0;-130.0
18:41:41.051;434.0;187.0
18:41:41.091;146.0;-306.0
18:41:41.131;-92.0;-657.0
18:41:41.171;-722.0;9054.0
18:41:41.211;-517.0;3432.0
18:41:41.251;-252.0;364.0
18:41:41.291;-88.0;-812.0
18:41:41.331;252.0;-927.0
18:41:41.371;733.0;-335.0
18:41:41.411;760.0;-1.0
18:41:41.451;340.0;-622.0
18:41:41.491;-116.0;-1339.0
18:41:41.531;-336.0;-1517.0
18:41:41.571;-370.0;-1442.0
18:41:41.611;-376.0;-1391.0
18:41:41.651;-351.0;-1354.0
18:41:41.691;-335.0;-1236.0
18:41:41.731;-332.0;-1094.0
18:41:41.771;-245.0;-1030.0
18:41:41.811;-53.0;-391.0
18:41:41.851;149.0;-124.0
18:41:41.891;70.0;-330.0
18:41:41.931;690.0;-464.0
18:41:41.971;-1294.0;619.0
18:41:42.011;-534.0;98.0
18:41:42.051;-76.0;-68.0
18:41:42.091;183.0;-122.0
18:41:42.131;526.0;393.0
18:41:42.171;751.0;892.0
18:41:42.211;478.0;656.0
18:41:42.251;18.0;-392.0
18:41:42.291;-302.0;-1073.0
18:41:42.331;-413.0;-1205.0
18:41:42.371;-398.0;-1164.0
18:41:42.411;-378.0;-1199.0
18:41:42.451;-342.0;-1179.0
18:41:42.491;-341.0;-1083.0
18:41:42.531;-319.0;-952.0
18:41:42.571;-119.0;-257.0
18:41:42.611;-188.0;-317.0
18:41:42.651;-148.0;-447.0
18:41:42.691;1709.0;-99.0
18:41:42.731;67.0;-110.0
18:41:42.771;123.0;141.0
18:41:42.811;326.0;354.0
18:41:42.851;680.0;765.0
18:41:42.891;1087.0;1463.0
18:41:42.931;1193.0;1966.0
18:41:42.971;664.0;1355.0
18:41:43.011;-17.0;190.0
18:41:43.051;-430.0;-439.0
18:41:43.091;-639.0;-662.0
18:41:43.131;-684.0;-791.0
18:41:43.171;-693.0;-867.0
18:41:43.211;-713.0;-912.0
18:41:43.251;-692.0;-937.0
18:41:43.291;-562.0;-747.0
18:41:43.331;-329.0;-181.0
18:41:46.276;-446.0;-462.0
18:41:46.316;-693.0;-627.0
18:41:46.356;-460.0;-572.0
18:41:46.396;-222.0;-273.0
18:41:46.436;217.0;201.0
18:41:46.476;738.0;1017.0
18:41:46.516;969.0;1581.0
18:41:46.556;629.0;1184.0
18:41:46.596;226.0;402.0
18:41:46.636;-33.0;111.0
18:41:46.676;-55.0;30.0
18:41:46.716;49.0;83.0
18:41:46.756;118.0;17.0
18:41:46.796;155.0;-15.0
18:41:46.836;137.0;-133.0
18:41:46.876;185.0;-60.0
18:41:46.916;290.0;426.0
18:41:46.956;-43.0;-215.0
18:41:46.996;-355.0;-658.0
18:41:47.036;-678.0;7827.0
18:41:47.076;-839.0;2769.0
18:41:47.116;-522.0;192.0
18:41:47.156;-333.0;-707.0
18:41:47.196;74.0;-643.0
18:41:47.236;569.0;18.0
18:41:47.276;722.0;376.0
18:41:47.316;273.0;-268.0
18:41:47.356;-220.0;-1032.0
18:41:47.396;-326.0;-1117.0
18:41:47.436;-347.0;-1038.0
18:41:47.476;-334.0;-1035.0
18:41:47.516;-308.0;-969.0
18:41:47.556;-270.0;-965.0
18:41:47.596;-211.0;-830.0
18:41:47.636;-197.0;-594.0
18:41:47.676;77.0;13.0
18:41:47.716;50.0;-151.0
18:41:47.756;52.0;-325.0
18:41:47.796;1989.0;1553.0
18:41:47.836;701.0;492.0
18:41:47.876;388.0;46.0
18:41:47.916;323.0;78.0
18:41:47.956;489.0;323.0
18:41:47.996;788.0;852.0
18:41:48.036;778.0;1142.0
18:41:48.076;216.0;519.0
18:41:48.116;-324.0;-368.0
18:41:48.156;-680.0;-794.0
18:41:48.196;-816.0;-850.0
18:41:48.236;-841.0;-920.0
18:41:48.276;-805.0;-954.0
18:41:48.316;-759.0;-939.0
18:41:48.356;-712.0;-884.0
18:41:48.396;-601.0;-674.0
18:41:48.436;-425.0;-129.0
18:41:48.476;-476.0;-383.0
18:41:48.516;-496.0;-627.0
18:41:48.556;1125.0;3241.0
18:41:48.596;162.0;1094.0
18:41:48.636;13.0;151.0
18:41:48.676;171.0;16.0
18:41:48.716;668.0;457.0
18:41:48.756;1261.0;1290.0
18:41:48.796;1443.0;1735.0
18:41:48.836;987.0;1202.0
18:41:48.876;365.0;258.0
18:41:48.916;57.0;-256.0
18:41:48.956;-127.0;-415.0
18:41:48.996;-330.0;-652.0
18:41:49.036;-605.0;-999.0
18:41:49.076;-810.0;-1227.0
18:41:49.116;-953.0;-1342.0
18:41:49.156;-873.0;-1188.0
18:41:49.196;-629.0;-634.0
18:41:49.236;-835.0;-1036.0
18:41:49.276;-887.0;-1290.0
18:41:49.316;-1561.0;7991.0
18:41:49.356;-1128.0;2836.0
18:41:49.396;-589.0;375.0
18:41:49.436;-102.0;-451.0
18:41:49.476;469.0;-422.0
18:41:49.516;969.0;221.0
18:41:49.556;1040.0;538.0
18:41:49.596;634.0;-109.0
18:41:49.636;299.0;-763.0
18:41:49.676;257.0;-823.0
18:41:49.716;223.0;-797.0
18:41:49.756;284.0;-847.0
18:41:49.796;222.0;-1036.0
18:41:49.836;201.0;-1181.0
18:41:49.876;169.0;-1315.0
18:41:49.916;276.0;-921.0
18:41:49.956;115.0;-1165.0
18:41:49.996;-116.0;-1477.0
18:41:50.036;806.0;-2014.0
18:41:50.076;-1225.0;-1540.0
18:41:50.116;-864.0;-1426.0
18:41:50.156;-541.0;-1065.0
18:41:50.196;-118.0;-503.0
18:41:50.236;306.0;140.0
18:41:48.766;663.0;879.0
18:41:48.806;130.0;-24.0
18:41:48.846;-86.0;-396.0
18:41:48.886;-269.0;-631.0
18:41:48.926;-403.0;-747.0
18:41:48.966;-474.0;-778.0
18:41:49.006;-413.0;-395.0
18:41:49.046;-429.0;-332.0
18:41:49.086;-568.0;-698.0
18:41:49.126;8.0;-789.0
18:41:49.166;-1771.0;137.0
18:41:49.206;-911.0;-130.0
18:41:49.246;-380.0;-69.0
18:41:49.286;145.0;370.0
18:41:49.326;757.0;1111.0
18:41:49.366;1199.0;1929.0
18:41:49.406;1065.0;1873.0
18:41:49.446;748.0;1045.0
18:41:49.486;521.0;542.0
18:41:49.526;375.0;364.0
18:41:49.566;267.0;288.0
18:41:49.606;147.0;54.0
18:41:49.646;-46.0;-225.0
18:41:49.686;-252.0;-468.0
18:41:49.726;-290.0;-642.0
18:41:49.766;-276.0;-156.0
18:41:49.806;-494.0;-495.0
18:41:49.846;-655.0;-851.0
18:41:49.886;1103.0;99.0
18:41:49.926;-301.0;-383.0
18:41:49.966;-358.0;-491.0
18:41:50.006;-255.0;-318.0
18:41:50.046;16.0;100.0
18:41:50.086;512.0;888.0
18:41:50.126;789.0;1511.0
18:41:50.166;492.0;1217.0
18:41:50.206;30.0;377.0
18:41:50.246;-156.0;17.0
18:41:50.286;-217.0;-27.0
18:41:50.326;-154.0;22.0
18:41:50.366;-78.0;-23.0
18:41:50.406;2.0;-14.0
18:41:50.446;57.0;-51.0
18:41:50.486;69.0;-37.0
18:41:50.526;144.0;238.0
18:41:50.566;202.0;323.0
18:41:50.606;-47.0;-158.0
18:41:50.646;201.0;-547.0
18:41:50.686;-1660.0;2206.0
18:41:50.726;-938.0;653.0
18:41:50.766;-506.0;-119.0
18:41:50.806;-151.0;-244.0
18:41:50.846;396.0;144.0
18:41:50.886;770.0;759.0
18:41:50.926;648.0;783.0
18:41:50.966;232.0;34.0
18:41:51.006;-110.0;-503.0
18:41:51.046;-332.0;-567.0
18:41:51.086;-387.0;-586.0
18:41:51.126;-354.0;-661.0
18:41:51.166;-368.0;-744.0
18:41:51.206;-354.0;-745.0
18:41:51.246;-282.0;-666.0
18:41:51.286;-73.0;-379.0
18:41:51.326;145.0;151.0
18:41:51.366;156.0;-59.0
18:41:51.406;68.0;-274.0
18:41:51.446;705.0;6231.0
18:41:51.486;271.0;2659.0
18:41:51.526;279.0;716.0
18:41:51.566;342.0;-31.0
18:41:51.606;584.0;-72.0
18:41:51.646;988.0;347.0
18:41:51.686;924.0;589.0
18:41:51.726;277.0;-105.0
18:41:51.766;-328.0;-994.0
18:41:51.806;-590.0;-1346.0
18:41:51.846;-611.0;-1363.0
18:41:51.886;-657.0;-1392.0
18:41:51.926;-696.0;-1427.0
18:41:51.966;-696.0;-1390.0
18:41:52.006;-675.0;-1346.0
18:41:52.046;-553.0;-1192.0
18:41:52.086;-366.0;-504.0
18:41:52.126;-509.0;-736.0
18:41:52.166;-579.0;-990.0
18:41:52.206;1487.0;618.0
18:41:52.246;107.0;-122.0
18:41:52.286;-68.0;-298.0
18:41:52.326;89.0;51.0
18:41:52.366;484.0;541.0
18:41:52.406;975.0;1246.0
18:41:52.446;1189.0;1696.0
18:41:52.486;785.0;1146.0
18:41:52.526;320.0;-3.0
18:41:52.566;0.0;-641.0
18:41:52.606;-266.0;-995.0
18:41:52.646;-449.0;-1329.0
18:41:52.686;-640.0;-1612.0
18:41:52.726;-676.0;-1714.0
18:41:57.603;-733.0;-1693.0
18:41:57.643;-686.0;-1845.0
18:41:57.683;-2172.0;2912.0
18:41:57.723;-1310.0;640.0
18:41:57.763;-649.0;-282.0
18:41:57.803;-96.0;-337.0
18:41:57.843;508.0;168.0
18:41:57.883;1002.0;896.0
18:41:57.923;955.0;1037.0
18:41:57.963;495.0;304.0
18:41:58.003;242.0;-233.0
18:41:58.043;83.0;-269.0
18:41:58.083;169.0;-194.0
18:41:58.123;243.0;-236.0
18:41:58.163;185.0;-273.0
18:41:58.203;183.0;-407.0
18:41:58.243;140.0;-484.0
18:41:58.283;180.0;7.0
18:41:58.323;24.0;0.0
18:41:58.363;-195.0;-555.0
18:41:58.403;1456.0;-418.0
18:41:58.443;-350.0;-780.0
18:41:58.483;-549.0;-882.0
18:41:58.523;-452.0;-686.0
18:41:58.563;-152.0;-195.0
18:41:58.603;360.0;565.0
18:41:58.643;616.0;1191.0
18:41:58.683;283.0;912.0
18:41:58.723;-231.0;65.0
18:41:58.763;-446.0;-259.0
18:41:58.803;-487.0;-301.0
18:41:58.843;-439.0;-287.0
18:41:58.883;-419.0;-325.0
18:41:58.923;-399.0;-411.0
18:41:58.963;-347.0;-366.0
18:41:59.003;-244.0;-149.0
18:41:59.043;-14.0;213.0
18:41:59.083;-43.0;6.0
18:41:59.123;317.0;-100.0
18:41:59.163;-1337.0;3004.0
18:41:59.203;-430.0;1498.0
18:41:59.243;180.0;824.0
18:41:59.283;595.0;676.0
18:41:59.323;1148.0;1074.0
18:41:59.363;1420.0;1568.0
18:41:59.403;1059.0;1396.0
18:41:59.443;297.0;357.0
18:41:59.483;-209.0;-373.0
18:41:59.523;-429.0;-626.0
18:41:59.563;-551.0;-698.0
18:41:59.603;-592.0;-805.0
18:41:59.643;-553.0;-861.0
18:41:59.683;-540.0;-854.0
18:41:59.723;-409.0;-585.0
18:41:59.763;-161.0;-38.0
18:41:59.803;-373.0;-508.0
18:41:59.843;-458.0;-749.0
18:41:59.883;-1378.0;8669.0
18:41:59.923;-782.0;3472.0
18:41:59.963;-171.0;958.0
18:42:00.003;258.0;-47.0
18:42:00.043;857.0;33.0
18:42:00.083;1516.0;749.0
18:42:00.123;1673.0;1123.0
18:42:00.163;1205.0;511.0
18:42:00.203;707.0;-158.0
18:42:00.243;468.0;-339.0
18:42:00.283;318.0;-436.0
18:42:00.323;119.0;-626.0
18:42:00.363;-141.0;-823.0
18:42:00.403;-401.0;-1050.0
18:42:00.443;-392.0;-1047.0
18:42:00.483;-389.0;-638.0
18:42:00.523;-715.0;-1094.0
18:42:00.563;-862.0;-1299.0
18:42:00.603;-773.0;6578.0
18:42:00.643;-863.0;2209.0
18:42:00.683;-566.0;215.0
18:42:00.723;-248.0;-509.0
18:42:00.763;264.0;-252.0
18:42:00.803;779.0;345.0
18:42:00.843;883.0;671.0
18:42:00.883;421.0;19.0
18:42:00.923;36.0;-639.0
18:42:00.963;-54.0;-717.0
18:42:01.003;35.0;-574.0
18:42:01.043;80.0;-562.0
18:42:01.083;90.0;-618.0
18:42:01.123;121.0;-609.0
18:42:01.163;240.0;-122.0
18:42:01.203;25.0;-484.0
18:42:01.243;-179.0;-858.0
18:42:01.283;900.0;3304.0
18:42:01.323;-99.0;516.0
18:42:01.363;-351.0;-642.0
18:42:01.403;-331.0;-947.0
18:42:01.443;-67.0;-633.0
18:42:01.483;435.0;141.0
18:42:01.523;586.0;590.0
18:42:01.563;201.0;76.0
18:42:03.839;-208.0;-608.0
18:42:03.879;-266.0;-706.0
18:42:03.919;-208.0;-704.0
18:42:03.959;26.0;-192.0
18:42:03.999;139.0;-2.0
18:42:04.039;49.0;-306.0
18:42:04.079;900.0;-504.0
18:42:04.119;-1255.0;203.0
18:42:04.159;-523.0;-77.0
18:42:04.199;-61.0;-100.0
18:42:04.239;275.0;118.0
18:42:04.279;694.0;633.0
18:42:04.319;865.0;1126.0
18:42:04.359;433.0;760.0
18:42:04.399;-131.0;-156.0
18:42:04.439;-480.0;-670.0
18:42:04.479;-642.0;-750.0
18:42:04.519;-660.0;-746.0
18:42:04.559;-666.0;-817.0
18:42:04.599;-664.0;-857.0
18:42:04.639;-538.0;-728.0
18:42:04.679;-303.0;-145.0
18:42:04.719;-415.0;-457.0
18:42:04.759;-440.0;-610.0
18:42:04.799;348.0;-6387.0
18:42:04.839;-54.0;-2520.0
18:42:04.879;161.0;-568.0
18:42:04.919;447.0;630.0
18:42:04.959;856.0;1500.0
18:42:04.999;1332.0;2362.0
18:42:05.039;1323.0;2619.0
18:42:05.079;757.0;1793.0
18:42:05.119;-36.0;703.0
18:42:05.159;-526.0;160.0
18:42:05.199;-688.0;7.0
18:42:05.239;-847.0;-273.0
18:42:05.279;-950.0;-534.0
18:42:05.319;-973.0;-652.0
18:42:05.359;-919.0;-694.0
18:42:05.399;-613.0;-174.0
18:42:05.439;-636.0;-323.0
18:42:05.479;-690.0;-647.0
18:42:05.519;996.0;-1034.0
18:42:05.559;-885.0;-659.0
18:42:05.599;-525.0;-399.0
18:42:05.639;-139.0;-94.0
18:42:05.679;326.0;457.0
18:42:05.719;839.0;1166.0
18:42:05.759;1146.0;1774.0
18:42:05.799;973.0;1562.0
18:42:05.839;604.0;748.0
18:42:05.879;346.0;234.0
18:42:05.919;268.0;99.0
18:42:05.959;206.0;-40.0
18:42:05.999;158.0;-244.0
18:42:06.039;67.0;-464.0
18:42:06.079;-11.0;-668.0
18:42:06.119;-72.0;-699.0
18:42:06.159;-59.0;-157.0
18:42:06.199;-332.0;-511.0
18:42:06.239;-587.0;-1022.0
18:42:06.279;1067.0;-680.0
18:42:06.319;-696.0;-956.0
18:42:06.359;-656.0;-774.0
18:42:06.399;-415.0;-350.0
18:42:06.439;-38.0;223.0
18:42:06.479;400.0;1047.0
18:42:06.519;632.0;1691.0
18:42:06.559;358.0;1373.0
18:42:06.599;-40.0;495.0
18:42:06.639;-223.0;86.0
18:42:06.679;-274.0;58.0
18:42:06.719;-261.0;59.0
18:42:06.759;-195.0;44.0
18:42:06.799;-196.0;-32.0
18:42:06.839;-102.0;48.0
18:42:06.879;65.0;250.0
18:42:06.919;306.0;910.0
18:42:06.959;205.0;611.0
18:42:06.999;51.0;234.0
18:42:07.039;1969.0;1557.0
18:42:07.079;452.0;676.0
18:42:07.119;131.0;298.0
18:42:07.159;-29.0;185.0
18:42:07.199;89.0;373.0
18:42:07.239;437.0;992.0
18:42:07.279;558.0;1403.0
18:42:07.319;98.0;889.0
18:42:07.359;-407.0;-19.0
18:42:07.399;-646.0;-351.0
18:42:07.439;-737.0;-347.0
18:42:07.479;-739.0;-391.0
18:42:07.519;-731.0;-400.0
18:42:07.559;-697.0;-432.0
18:42:07.599;-668.0;-453.0
18:42:07.639;-590.0;-364.0
18:42:07.679;-379.0;-145.0
18:42:07.719;-134.0;440.0
18:42:07.759;-281.0;124.0
18:42:07.799;-372.0;-88.0
18:42:12.997;120.0;7520.0
18:42:13.037;121.0;3256.0
18:42:13.077;25.0;939.0
18:42:13.117;-148.0;-491.0
18:42:13.157;-322.0;-1195.0
18:42:13.197;-468.0;-1526.0
18:42:13.237;-444.0;-1443.0
18:42:13.277;-278.0;-844.0
18:42:13.317;-451.0;-1138.0
18:42:13.357;-561.0;-1321.0
18:42:13.397;-1074.0;8135.0
18:42:13.437;-779.0;2927.0
18:42:13.477;-309.0;431.0
18:42:13.517;76.0;-435.0
18:42:13.557;562.0;-383.0
18:42:13.597;1013.0;235.0
18:42:13.637;1112.0;562.0
18:42:13.677;742.0;-39.0
18:42:13.717;422.0;-704.0
18:42:13.757;376.0;-767.0
18:42:13.797;334.0;-690.0
18:42:13.837;335.0;-701.0
18:42:13.877;284.0;-766.0
18:42:13.917;158.0;-867.0
18:42:13.957;32.0;-948.0
18:42:13.997;-48.0;-950.0
18:42:14.037;-83.0;-644.0
18:42:14.077;-236.0;-706.0
18:42:14.117;-539.0;-1154.0
18:42:14.157;155.0;-1413.0
18:42:14.197;-1935.0;-464.0
18:42:14.237;-1205.0;-767.0
18:42:14.277;-632.0;-704.0
18:42:14.317;-97.0;-276.0
18:42:14.357;559.0;418.0
18:42:14.397;1005.0;1208.0
18:42:14.437;750.0;1062.0
18:42:14.477;222.0;195.0
18:42:14.517;-142.0;-285.0
18:42:14.557;-295.0;-391.0
18:42:14.597;-283.0;-372.0
18:42:14.637;-345.0;-459.0
18:42:14.677;-361.0;-536.0
18:42:14.717;-295.0;-468.0
18:42:14.757;-156.0;-309.0
18:42:14.797;-18.0;-117.0
18:42:14.837;113.0;223.0
18:42:14.877;165.0;438.0
18:42:14.917;18.0;47.0
18:42:14.957;-15.0;-284.0
18:42:14.997;-1576.0;5075.0
18:42:15.037;-870.0;1927.0
18:42:15.077;-263.0;366.0
18:42:15.117;64.0;-132.0
18:42:15.157;475.0;15.0
18:42:15.197;797.0;533.0
18:42:15.237;653.0;586.0
18:42:15.277;149.0;-281.0
18:42:15.317;-207.0;-965.0
18:42:15.357;-372.0;-1186.0
18:42:15.397;-378.0;-1147.0
18:42:15.437;-361.0;-1118.0
18:42:15.477;-305.0;-1143.0
18:42:15.517;-275.0;-1086.0
18:42:15.557;-189.0;-1015.0
18:42:15.597;-127.0;-890.0
18:42:15.637;45.0;-454.0
18:42:15.677;92.0;-250.0
18:42:15.717;42.0;-519.0
18:42:15.757;764.0;-571.0
18:42:15.797;-840.0;138.0
18:42:15.837;-78.0;149.0
18:42:15.877;412.0;254.0
18:42:15.917;753.0;591.0
18:42:15.957;1076.0;1127.0
18:42:15.997;1169.0;1656.0
18:42:16.037;784.0;1336.0
18:42:16.077;147.0;122.0
18:42:16.117;-335.0;-589.0
18:42:16.157;-519.0;-765.0
18:42:16.197;-523.0;-779.0
18:42:16.237;-548.0;-827.0
18:42:16.277;-531.0;-871.0
18:42:16.317;-497.0;-900.0
18:42:16.357;-465.0;-805.0
18:42:16.397;-324.0;-610.0
18:42:16.437;-112.0;19.0
18:42:16.477;-235.0;-238.0
18:42:16.517;-326.0;-497.0
18:42:16.557;1002.0;4134.0
18:42:16.597;230.0;1625.0
18:42:16.637;211.0;550.0
18:42:16.677;441.0;387.0
18:42:16.717;857.0;727.0
18:42:16.757;1352.0;1381.0
18:42:16.797;1454.0;1850.0
18:42:16.837;922.0;1170.0
18:42:16.877;319.0;164.0
18:42:16.917;-44.0;-314.0
18:42:16.957;-306.0;-539.0
18:42:14.978;-446.0;-794.0
18:42:15.018;-876.0;-973.0
18:42:15.058;-1046.0;-1053.0
18:42:15.098;-859.0;-750.0
18:42:15.138;-439.0;50.0
18:42:15.178;-376.0;-123.0
18:42:15.218;-346.0;-297.0
18:42:15.258;410.0;6601.0
18:42:15.298;99.0;2784.0
18:42:15.338;150.0;886.0
18:42:15.378;279.0;111.0
18:42:15.418;473.0;14.0
18:42:15.458;694.0;441.0
18:42:15.498;672.0;621.0
18:42:15.538;269.0;-55.0
18:42:15.578;-270.0;-1096.0
18:42:15.618;-519.0;-1517.0
18:42:15.658;-573.0;-1607.0
18:42:15.698;-483.0;-1581.0
18:42:15.738;-479.0;-1585.0
18:42:15.778;-411.0;-1531.0
18:42:15.818;-343.0;-1532.0
18:42:15.858;-279.0;-1358.0
18:42:15.898;-108.0;-704.0
18:42:15.938;-195.0;-770.0
18:42:15.978;-163.0;-921.0
18:42:16.018;1372.0;-612.0
18:42:16.058;-323.0;-602.0
18:42:16.098;-182.0;-330.0
18:42:16.138;77.0;159.0
18:42:16.178;371.0;752.0
18:42:16.218;873.0;1576.0
18:42:16.258;1133.0;2261.0
18:42:16.298;837.0;1888.0
18:42:16.338;391.0;800.0
18:42:16.378;40.0;65.0
18:42:16.418;-97.0;-110.0
18:42:16.458;-219.0;-426.0
18:42:16.498;-415.0;-657.0
18:42:16.538;-610.0;-902.0
18:42:16.578;-729.0;-1076.0
18:42:16.618;-732.0;-1026.0
18:42:16.658;-572.0;-429.0
18:42:16.698;-665.0;-623.0
18:42:16.738;-684.0;-841.0
18:42:16.778;962.0;1980.0
18:42:16.818;-165.0;409.0
18:42:16.858;-271.0;-120.0
18:42:16.898;-173.0;-141.0
18:42:16.938;196.0;214.0
18:42:16.978;714.0;1072.0
18:42:17.018;928.0;1608.0
18:42:17.058;579.0;1161.0
18:42:17.098;242.0;339.0
18:42:17.138;159.0;-22.0
18:42:17.178;205.0;84.0
18:42:17.218;279.0;70.0
18:42:17.258;291.0;-90.0
18:42:17.298;233.0;-194.0
18:42:17.338;144.0;-358.0
18:42:17.378;107.0;-346.0
18:42:17.418;114.0;-10.0
18:42:17.458;-308.0;-629.0
18:42:17.498;-537.0;-1016.0
18:42:17.538;3.0;5147.0
18:42:17.578;-554.0;1657.0
18:42:17.618;-564.0;-131.0
18:42:17.658;-417.0;-639.0
18:42:17.698;-28.0;-492.0
18:42:17.738;520.0;334.0
18:42:17.778;659.0;765.0
18:42:17.818;238.0;172.0
18:42:17.858;-209.0;-568.0
18:42:17.898;-468.0;-850.0
18:42:17.938;-484.0;-777.0
18:42:17.978;-426.0;-826.0
18:42:18.018;-382.0;-821.0
18:42:18.058;-322.0;-806.0
18:42:18.098;-177.0;-615.0
18:42:18.138;-26.0;-237.0
18:42:18.178;126.0;59.0
18:42:18.218;-45.0;-359.0
18:42:18.258;94.0;-628.0
18:42:18.298;-1380.0;2715.0
18:42:18.338;-710.0;906.0
18:42:18.378;-174.0;-32.0
18:42:18.418;148.0;-164.0
18:42:18.458;494.0;151.0
18:42:18.498;766.0;738.0
18:42:18.538;515.0;673.0
18:42:18.578;-4.0;-284.0
18:42:18.618;-385.0;-969.0
18:42:18.658;-461.0;-1110.0
18:42:18.698;-494.0;-1052.0
18:42:18.738;-482.0;-1013.0
18:42:18.778;-405.0;-1035.0
18:42:18.818;-351.0;-1020.0
18:42:18.858;-286.0;-596.0
18:42:18.898;-79.0;-419.0
18:42:18.938;-136.0;-739.0
18:42:27.007;-208.0;-608.0
18:42:27.047;-266.0;-706.0
18:42:27.087;-208.0;-704.0
18:42:27.127;26.0;-192.0
18:42:27.167;139.0;-2.0
18:42:27.207;49.0;-306.0
18:42:27.247;900.0;-504.0
18:42:27.287;-1255.0;203.0
18:42:27.327;-523.0;-77.0
18:42:27.367;-61.0;-100.0
18:42:27.407;275.0;118.0
18:42:27.447;694.0;633.0
18:42:27.487;865.0;1126.0
18:42:27.527;433.0;760.0
18:42:27.567;-131.0;-156.0
18:42:27.607;-480.0;-670.0
18:42:27.647;-642.0;-750.0
18:42:27.687;-660.0;-746.0
18:42:27.727;-666.0;-817.0
18:42:27.767;-664.0;-857.0
18:42:27.807;-538.0;-728.0
18:42:27.847;-303.0;-145.0
18:42:27.887;-415.0;-457.0
18:42:27.927;-440.0;-610.0
18:42:27.967;348.0;-6387.0
18:42:28.007;-54.0;-2520.0
18:42:28.047;161.0;-568.0
18:42:28.087;447.0;630.0
18:42:28.127;856.0;1500.0
18:42:28.167;1332.0;2362.0
18:42:28.207;1323.0;2619.0
18:42:28.247;757.0;1793.0
18:42:28.287;-36.0;703.0
18:42:28.327;-526.0;160.0
18:42:28.367;-688.0;7.0
18:42:28.407;-847.0;-273.0
18:42:28.447;-950.0;-534.0
18:42:28.487;-973.0;-652.0
18:42:28.527;-919.0;-694.0
18:42:28.567;-613.0;-174.0
18:42:28.607;-636.0;-323.0
18:42:28.647;-690.0;-647.0
18:42:28.687;996.0;-1034.0
18:42:28.727;-885.0;-659.0
18:42:28.767;-525.0;-399.0
18:42:28.807;-139.0;-94.0
18:42:28.847;326.0;457.0
18:42:28.887;839.0;1166.0
18:42:28.927;1146.0;1774.0
18:42:28.967;973.0;1562.0
18:42:29.007;604.0;748.0
18:42:29.047;346.0;234.0
18:42:29.087;268.0;99.0
18:42:29.127;206.0;-40.0
18:42:29.167;158.0;-244.0
18:42:29.207;67.0;-464.0
18:42:29.247;-11.0;-668.0
18:42:29.287;-72.0;-699.0
18:42:29.327;-59.0;-157.0
18:42:29.367;-332.0;-511.0
18:42:29.407;-587.0;-1022.0
18:42:29.447;1067.0;-680.0
18:42:29.487;-696.0;-956.0
18:42:29.527;-656.0;-774.0
18:42:29.567;-415.0;-350.0
18:42:29.607;-38.0;223.0
18:42:29.647;400.0;1047.0
18:42:29.687;632.0;1691.0
18:42:29.727;358.0;1373.0
18:42:29.767;-40.0;495.0
18:42:29.807;-223.0;86.0
18:42:29.847;-274.0;58.0
18:42:29.887;-261.0;59.0
18:42:29.927;-195.0;44.0
18:42:29.967;-196.0;-32.0
18:42:30.007;-102.0;48.0
18:42:30.047;65.0;250.0
18:42:30.087;306.0;910.0
18:42:30.127;205.0;611.0
18:42:30.167;51.0;234.0
18:42:30.207;1969.0;1557.0
18:42:30.247;452.0;676.0
18:42:30.287;131.0;298.0
18:42:30.327;-29.0;185.0
18:42:30.367;89.0;373.0
18:42:30.407;437.0;992.0
18:42:30.447;558.0;1403.0
18:42:30.487;98.0;889.0
18:42:30.527;-407.0;-19.0
18:42:30.567;-646.0;-351.0
18:42:30.607;-737.0;-347.0
18:42:30.647;-739.0;-391.0
18:42:30.687;-731.0;-400.0
18:42:30.727;-697.0;-432.0
18:42:30.767;-668.0;-453.0
18:42:30.807;-590.0;-364.0
18:42:30.847;-379.0;-145.0
18:42:30.887;-134.0;440.0
18:42:30.927;-281.0;124.0
18:42:30.967;-372.0;-88.0
18:42:34.393;18.0;-1176.0
18:42:34.433;345.0;-300.0
18:42:34.473;837.0;458.0
18:42:34.513;1351.0;1421.0
18:42:34.553;1535.0;2014.0
18:42:34.593;1047.0;1500.0
18:42:34.633;407.0;432.0
18:42:34.673;34.0;-159.0
18:42:34.713;-323.0;-511.0
18:42:34.753;-450.0;-845.0
18:42:34.793;-613.0;-987.0
18:42:34.833;-749.0;-1248.0
18:42:34.873;-859.0;-1296.0
18:42:34.913;-899.0;-999.0
18:42:34.953;-991.0;-760.0
18:42:34.993;-919.0;-999.0
18:42:35.033;-308.0;-1028.0
18:42:35.073;-2309.0;566.0
18:42:35.113;-1337.0;-143.0
18:42:35.153;-654.0;-261.0
18:42:35.193;-47.0;69.0
18:42:35.233;692.0;722.0
18:42:35.273;1211.0;1553.0
18:42:35.313;928.0;1530.0
18:42:35.353;472.0;739.0
18:42:35.393;315.0;322.0
18:42:35.433;280.0;253.0
18:42:35.473;268.0;210.0
18:42:35.513;293.0;73.0
18:42:35.553;292.0;-49.0
18:42:35.593;188.0;-214.0
18:42:35.633;242.0;102.0
18:42:35.673;204.0;123.0
18:42:35.713;-170.0;-385.0
18:42:35.753;331.0;-699.0
18:42:35.793;-1803.0;72.0
18:42:35.833;-1173.0;-388.0
18:42:35.873;-604.0;-462.0
18:42:35.913;-116.0;-146.0
18:42:35.953;497.0;501.0
18:42:35.993;870.0;1129.0
18:42:36.033;619.0;993.0
18:42:36.073;123.0;133.0
18:42:36.113;-139.0;-321.0
18:42:36.153;-257.0;-345.0
18:42:36.193;-295.0;-311.0
18:42:36.233;-337.0;-423.0
18:42:36.273;-319.0;-474.0
18:42:36.313;-260.0;-241.0
18:42:36.353;-2.0;290.0
18:42:36.393;-117.0;-10.0
18:42:36.433;-166.0;-247.0
18:42:36.473;-902.0;9075.0
18:42:36.513;-412.0;3907.0
18:42:36.553;103.0;1296.0
18:42:36.593;425.0;244.0
18:42:36.633;763.0;126.0
18:42:36.673;1017.0;435.0
18:42:36.713;791.0;444.0
18:42:36.753;195.0;-594.0
18:42:36.793;-284.0;-1454.0
18:42:36.833;-451.0;-1721.0
18:42:36.873;-493.0;-1740.0
18:42:36.913;-403.0;-1779.0
18:42:36.953;-437.0;-1783.0
18:42:36.993;-399.0;-1347.0
18:42:37.033;-203.0;-1002.0
18:42:37.073;-370.0;-1397.0
18:42:37.113;-175.0;-1554.0
18:42:37.153;-1271.0;2540.0
18:42:37.193;-528.0;751.0
18:42:37.233;30.0;16.0
18:42:37.273;473.0;101.0
18:42:37.313;898.0;543.0
18:42:37.353;1244.0;1347.0
18:42:37.393;1180.0;1417.0
18:42:37.433;758.0;622.0
18:42:37.473;359.0;-50.0
18:42:37.513;78.0;-293.0
18:42:37.553;-240.0;-377.0
18:42:37.593;-469.0;-680.0
18:42:37.633;-758.0;-904.0
18:42:37.673;-811.0;-560.0
18:42:37.713;-1084.0;-1107.0
18:42:37.753;-1210.0;-1535.0
18:42:37.793;666.0;-268.0
18:42:37.833;-722.0;-880.0
18:42:37.873;-671.0;-955.0
18:42:37.913;-447.0;-712.0
18:42:37.953;24.0;-77.0
18:42:37.993;598.0;812.0
18:42:38.033;798.0;1338.0
18:42:38.073;482.0;871.0
18:42:38.113;162.0;14.0
18:42:38.153;-38.0;-321.0
18:42:38.193;-141.0;-390.0
18:42:38.233;-78.0;-388.0
18:42:38.273;-39.0;-446.0
18:42:38.313;87.0;-260.0
18:42:38.353;311.0;347.0
18:42:35.675;249.0;33.0
18:42:35.715;148.0;35.0
18:42:35.755;308.0;-27.0
18:42:35.795;351.0;88.0
18:42:35.835;553.0;459.0
18:42:35.875;756.0;1046.0
18:42:35.915;750.0;1374.0
18:42:35.955;212.0;735.0
18:42:35.995;-234.0;-96.0
18:42:36.035;-408.0;-319.0
18:42:36.075;-460.0;-336.0
18:42:36.115;-551.0;-470.0
18:42:36.155;-573.0;-563.0
18:42:36.195;-535.0;-561.0
18:42:36.235;-385.0;-359.0
18:42:36.275;-192.0;181.0
18:42:36.315;-316.0;-70.0
18:42:36.355;-354.0;-269.0
18:42:36.395;537.0;5977.0
18:42:36.435;213.0;2793.0
18:42:36.475;243.0;1134.0
18:42:36.515;392.0;557.0
18:42:36.555;708.0;593.0
18:42:36.595;1023.0;1143.0
18:42:36.635;961.0;1316.0
18:42:36.675;313.0;411.0
18:42:36.715;-212.0;-580.0
18:42:36.755;-536.0;-934.0
18:42:36.795;-549.0;-958.0
18:42:36.835;-621.0;-1069.0
18:42:36.875;-610.0;-1164.0
18:42:36.915;-517.0;-1153.0
18:42:36.955;-514.0;-1073.0
18:42:36.995;-404.0;-697.0
18:42:37.035;-389.0;-552.0
18:42:37.075;-515.0;-814.0
18:42:37.115;342.0;-965.0
18:42:37.155;-1333.0;181.0
18:42:37.195;-598.0;-18.0
18:42:37.235;61.0;223.0
18:42:37.275;678.0;792.0
18:42:37.315;1331.0;1572.0
18:42:37.355;1684.0;2153.0
18:42:37.395;1364.0;1863.0
18:42:37.435;865.0;980.0
18:42:37.475;564.0;341.0
18:42:37.515;296.0;7.0
18:42:37.555;44.0;-307.0
18:42:37.595;-144.0;-589.0
18:42:37.635;-393.0;-906.0
18:42:37.675;-525.0;-1026.0
18:42:37.715;-466.0;-1001.0
18:42:37.755;-456.0;-892.0
18:42:37.795;-345.0;-278.0
18:42:37.835;-380.0;-546.0
18:42:37.875;-428.0;-795.0
18:42:37.915;930.0;3598.0
18:42:37.955;64.0;1318.0
18:42:37.995;-17.0;236.0
18:42:38.035;118.0;42.0
18:42:38.075;486.0;353.0
18:42:38.115;1024.0;1166.0
18:42:38.155;1112.0;1567.0
18:42:38.195;818.0;1168.0
18:42:38.235;425.0;424.0
18:42:38.275;342.0;186.0
18:42:38.315;283.0;86.0
18:42:38.355;276.0;-120.0
18:42:38.395;187.0;-328.0
18:42:38.435;-11.0;-512.0
18:42:38.475;-120.0;-702.0
18:42:38.515;-318.0;-887.0
18:42:38.555;-427.0;-941.0
18:42:38.595;-411.0;-473.0
18:42:38.635;-589.0;-867.0
18:42:38.675;-758.0;-1167.0
18:42:38.715;-419.0;6194.0
18:42:38.755;-603.0;2185.0
18:42:38.795;-452.0;203.0
18:42:38.835;-204.0;-398.0
18:42:38.875;219.0;-245.0
18:42:38.915;701.0;428.0
18:42:38.955;843.0;879.0
18:42:38.995;457.0;350.0
18:42:39.035;105.0;-285.0
18:42:39.075;-41.0;-474.0
18:42:39.115;32.0;-406.0
18:42:39.155;152.0;-327.0
18:42:39.195;125.0;-330.0
18:42:39.235;166.0;-354.0
18:42:39.275;135.0;-419.0
18:42:39.315;114.0;-438.0
18:42:39.355;96.0;-495.0
18:42:39.395;212.0;-102.0
18:42:39.435;79.0;-399.0
18:42:39.475;-206.0;-798.0
18:42:39.515;1420.0;-721.0
18:42:39.555;-338.0;-801.0
18:42:39.595;-553.0;-903.0
18:42:39.635;-517.0;-685.0
18:42:39.605;-194.0;-302.0
18:42:39.645;-401.0;-403.0
18:42:39.685;-521.0;-401.0
18:42:39.725;-573.0;-293.0
18:42:39.765;-559.0;-246.0
18:42:39.805;-538.0;-285.0
18:42:39.845;-496.0;-361.0
18:42:39.885;-525.0;-383.0
18:42:39.925;-506.0;-326.0
18:42:39.965;-332.0;-161.0
18:42:40.005;24.0;604.0
18:42:40.045;-73.0;338.0
18:42:40.085;-121.0;121.0
18:42:40.125;500.0;7789.0
18:42:40.165;115.0;3388.0
18:42:40.205;182.0;1158.0
18:42:40.245;290.0;299.0
18:42:40.285;525.0;164.0
18:42:40.325;718.0;492.0
18:42:40.365;711.0;742.0
18:42:40.405;107.0;-126.0
18:42:40.445;-441.0;-1117.0
18:42:40.485;-729.0;-1483.0
18:42:40.525;-730.0;-1502.0
18:42:40.565;-680.0;-1507.0
18:42:40.605;-682.0;-1476.0
18:42:40.645;-685.0;-1482.0
18:42:40.685;-634.0;-1400.0
18:42:40.725;-514.0;-1193.0
18:42:40.765;-210.0;-499.0
18:42:40.805;-341.0;-720.0
18:42:40.845;-418.0;-927.0
18:42:40.885;623.0;4677.0
18:42:40.925;96.0;1697.0
18:42:40.965;228.0;385.0
18:42:41.005;496.0;96.0
18:42:41.045;906.0;368.0
18:42:41.085;1478.0;1168.0
18:42:41.125;1579.0;1599.0
18:42:41.165;1029.0;938.0
18:42:41.205;454.0;-7.0
18:42:41.245;30.0;-516.0
18:42:41.285;-96.0;-616.0
18:42:41.325;-299.0;-806.0
18:42:41.365;-572.0;-1039.0
18:42:41.405;-787.0;-1224.0
18:42:41.445;-887.0;-1306.0
18:42:41.485;-923.0;-1252.0
18:42:41.525;-785.0;-760.0
18:42:41.565;-736.0;-662.0
18:42:41.605;-832.0;-942.0
18:42:41.645;395.0;-1307.0
18:42:41.685;-1441.0;-523.0
18:42:41.725;-821.0;-421.0
18:42:41.765;-389.0;-167.0
18:42:41.805;89.0;244.0
18:42:41.845;706.0;1012.0
18:42:41.885;1113.0;1714.0
18:42:41.925;902.0;1463.0
18:42:41.965;388.0;418.0
18:42:42.005;175.0;-133.0
18:42:42.045;207.0;-53.0
18:42:42.085;239.0;-1.0
18:42:42.125;241.0;-134.0
18:42:42.165;213.0;-272.0
18:42:42.205;186.0;-322.0
18:42:42.245;87.0;-383.0
18:42:42.285;166.0;57.0
18:42:42.325;-82.0;-253.0
18:42:42.365;-414.0;-690.0
18:42:42.405;1042.0;-929.0
18:42:42.445;-777.0;-797.0
18:42:42.485;-696.0;-579.0
18:42:42.525;-515.0;-271.0
18:42:42.565;-169.0;286.0
18:42:42.605;297.0;1102.0
18:42:42.645;582.0;1827.0
18:42:42.685;270.0;1448.0
18:42:42.725;-124.0;447.0
18:42:42.765;-292.0;-34.0
18:42:42.805;-354.0;-65.0
18:42:42.845;-288.0;-18.0
18:42:42.885;-232.0;-97.0
18:42:42.925;-137.0;-77.0
18:42:42.965;48.0;98.0
18:42:43.005;234.0;305.0
18:42:43.045;509.0;861.0
18:42:43.085;311.0;439.0
18:42:43.125;152.0;108.0
18:42:43.165;1527.0;3956.0
18:42:43.205;445.0;1675.0
18:42:43.245;54.0;481.0
18:42:43.285;-104.0;30.0
18:42:43.325;40.0;103.0
18:42:43.365;468.0;768.0
18:42:43.405;503.0;1172.0
18:42:43.445;27.0;529.0
18:42:43.485;-468.0;-407.0
18:42:43.525;-688.0;-727.0
18:42:43.565;-744.0;-697.0
18:42:47.971;-714.0;-709.0
18:42:48.011;-763.0;-780.0
18:42:48.051;-752.0;-753.0
18:42:48.091;-571.0;-402.0
18:42:48.131;-397.0;-97.0
18:42:48.171;-498.0;-335.0
18:42:48.211;-457.0;-519.0
18:42:48.251;-1641.0;6924.0
18:42:48.291;-685.0;3126.0
18:42:48.331;52.0;1283.0
18:42:48.371;512.0;679.0
18:42:48.411;1068.0;844.0
18:42:48.451;1474.0;1390.0
18:42:48.491;1269.0;1473.0
18:42:48.531;551.0;322.0
18:42:48.571;-84.0;-589.0
18:42:48.611;-338.0;-850.0
18:42:48.651;-521.0;-1051.0
18:42:48.691;-724.0;-1285.0
18:42:48.731;-833.0;-1443.0
18:42:48.771;-855.0;-1485.0
18:42:48.811;-845.0;-1446.0
18:42:48.851;-716.0;-1290.0
18:42:48.891;-452.0;-676.0
18:42:48.931;-577.0;-922.0
18:42:48.971;-573.0;-1104.0
18:42:49.011;914.0;3106.0
18:42:49.051;-7.0;770.0
18:42:49.091;-32.0;-112.0
18:42:49.131;108.0;-283.0
18:42:49.171;476.0;74.0
18:42:49.211;1062.0;867.0
18:42:49.251;1170.0;1354.0
18:42:49.291;822.0;903.0
18:42:49.331;458.0;114.0
18:42:49.371;257.0;-195.0
18:42:49.411;229.0;-282.0
18:42:49.451;174.0;-433.0
18:42:49.491;130.0;-529.0
18:42:49.531;1.0;-686.0
18:42:49.571;-136.0;-815.0
18:42:49.611;-303.0;-964.0
18:42:49.651;-405.0;-838.0
18:42:49.691;-298.0;-591.0
18:42:49.731;-605.0;-1075.0
18:42:49.771;-712.0;-1406.0
18:42:49.811;-1963.0;6087.0
18:42:49.851;-1234.0;2122.0
18:42:49.891;-646.0;279.0
18:42:49.931;-127.0;-348.0
18:42:49.971;453.0;-138.0
18:42:50.011;939.0;626.0
18:42:50.051;882.0;854.0
18:42:50.091;346.0;33.0
18:42:50.131;-154.0;-656.0
18:42:50.171;-302.0;-808.0
18:42:50.211;-271.0;-731.0
18:42:50.251;-208.0;-678.0
18:42:50.291;-65.0;-616.0
18:42:50.331;38.0;-503.0
18:42:50.371;111.0;-430.0
18:42:50.411;167.0;-379.0
18:42:50.451;336.0;-13.0
18:42:50.491;289.0;-72.0
18:42:50.531;30.0;-508.0
18:42:50.571;837.0;-1117.0
18:42:50.611;-1174.0;-351.0
18:42:50.651;-629.0;-588.0
18:42:50.691;-326.0;-623.0
18:42:50.731;-6.0;-319.0
18:42:50.771;425.0;346.0
18:42:50.811;748.0;1102.0
18:42:50.851;500.0;875.0
18:42:50.891;48.0;-200.0
18:42:50.931;-242.0;-788.0
18:42:50.971;-339.0;-946.0
18:42:51.011;-309.0;-864.0
18:42:51.051;-259.0;-876.0
18:42:51.091;-286.0;-851.0
18:42:51.131;-295.0;-863.0
18:42:51.171;-237.0;-735.0
18:42:51.211;-96.0;-339.0
18:42:51.251;156.0;122.0
18:42:51.291;134.0;-45.0
18:42:51.331;315.0;-175.0
18:42:51.371;-1007.0;5853.0
18:42:51.411;-283.0;2652.0
18:42:51.451;203.0;1022.0
18:42:51.491;518.0;423.0
18:42:51.531;839.0;562.0
18:42:51.571;1255.0;1055.0
18:42:51.611;994.0;1099.0
18:42:51.651;298.0;-2.0
18:42:51.691;-226.0;-908.0
18:42:51.731;-510.0;-1258.0
18:42:51.771;-647.0;-1292.0
18:42:51.811;-644.0;-1690.0
18:42:51.851;-634.0;-1476.0
18:42:51.891;-673.0;-1412.0
18:42:51.931;-665.0;-1258.0
18:42:49.390;-562.0;-1020.0
18:42:49.430;-218.0;-691.0
18:42:49.470;842.0;5482.0
18:42:49.510;354.0;2381.0
18:42:49.550;370.0;728.0
18:42:49.590;405.0;66.0
18:42:49.630;626.0;78.0
18:42:49.670;882.0;567.0
18:42:49.710;915.0;922.0
18:42:49.750;298.0;121.0
18:42:49.790;-324.0;-927.0
18:42:49.830;-629.0;-1320.0
18:42:49.870;-750.0;-1387.0
18:42:49.910;-787.0;-1436.0
18:42:49.950;-802.0;-1510.0
18:42:49.990;-786.0;-1523.0
18:42:50.030;-746.0;-1478.0
18:42:50.070;-652.0;-1352.0
18:42:50.110;-375.0;-768.0
18:42:50.150;-364.0;-723.0
18:42:50.190;-411.0;-925.0
18:42:50.230;1130.0;-1109.0
18:42:50.270;-513.0;-355.0
18:42:50.310;-91.0;-270.0
18:42:50.350;269.0;2.0
18:42:50.390;662.0;402.0
18:42:50.430;1203.0;1119.0
18:42:50.470;1422.0;1643.0
18:42:50.510;834.0;1069.0
18:42:50.550;209.0;-222.0
18:42:50.590;-258.0;-823.0
18:42:50.630;-535.0;-1024.0
18:42:50.670;-710.0;-1132.0
18:42:50.710;-819.0;-1227.0
18:42:50.750;-851.0;-1290.0
18:42:50.790;-898.0;-1213.0
18:42:50.830;-845.0;-1141.0
18:42:50.870;-591.0;-477.0
18:42:50.910;-694.0;-675.0
18:42:50.950;-719.0;-869.0
18:42:50.990;1349.0;786.0
18:42:51.030;153.0;137.0
18:42:51.070;36.0;48.0
18:42:51.110;107.0;160.0
18:42:51.150;534.0;874.0
18:42:51.190;1140.0;1704.0
18:42:51.230;1304.0;2281.0
18:42:51.270;876.0;1664.0
18:42:51.310;363.0;544.0
18:42:51.350;-31.0;-24.0
18:42:51.390;-165.0;-231.0
18:42:51.430;-339.0;-589.0
18:42:51.470;-546.0;-882.0
18:42:51.510;-752.0;-1127.0
18:42:51.550;-836.0;-1160.0
18:42:51.590;-706.0;-566.0
18:42:51.630;-835.0;-891.0
18:42:51.670;-864.0;-1119.0
18:42:51.710;1032.0;847.0
18:42:51.750;-155.0;-195.0
18:42:51.790;-301.0;-434.0
18:42:51.830;-201.0;-284.0
18:42:51.870;166.0;249.0
18:42:51.910;687.0;1084.0
18:42:51.950;920.0;1674.0
18:42:51.990;567.0;1176.0
18:42:52.030;117.0;304.0
18:42:52.070;31.0;40.0
18:42:52.110;-48.0;-41.0
18:42:52.150;33.0;-32.0
18:42:52.190;43.0;-71.0
18:42:52.230;27.0;-150.0
18:42:52.270;-32.0;-240.0
18:42:52.310;129.0;240.0
18:42:52.350;-85.0;27.0
18:42:52.390;-406.0;-521.0
18:42:52.430;1183.0;-1040.0
18:42:52.470;-860.0;-820.0
18:42:52.510;-871.0;-804.0
18:42:52.550;-756.0;-535.0
18:42:52.590;-346.0;-19.0
18:42:52.630;240.0;765.0
18:42:52.670;579.0;1535.0
18:42:52.710;275.0;1230.0
18:42:52.750;-275.0;255.0
18:42:52.790;-539.0;-215.0
18:42:52.830;-661.0;-302.0
18:42:52.870;-658.0;-315.0
18:42:52.910;-667.0;-418.0
18:42:52.950;-621.0;-469.0
18:42:52.990;-503.0;-399.0
18:42:53.030;-134.0;303.0
18:42:53.070;-103.0;263.0
18:42:53.110;-179.0;-73.0
18:42:53.150;1765.0;-411.0
18:42:53.190;-55.0;-177.0
18:42:53.230;-2.0;10.0
18:42:53.270;159.0;203.0
18:42:53.310;375.0;565.0
18:42:53.350;689.0;1143.0
18:42:55.914;691.0;1538.0
18:42:55.954;234.0;553.0
18:42:55.994;85.0;183.0
18:42:56.034;67.0;-125.0
18:42:56.074;18.0;-311.0
18:42:56.114;-14.0;-473.0
18:42:56.154;-20.0;-365.0
18:42:56.194;-40.0;-244.0
18:42:56.234;-352.0;-725.0
18:42:56.274;-196.0;-1078.0
18:42:56.314;-2161.0;469.0
18:42:56.354;-1330.0;-301.0
18:42:56.394;-759.0;-515.0
18:42:56.434;-259.0;-251.0
18:42:56.474;265.0;380.0
18:42:56.514;680.0;1231.0
18:42:56.554;538.0;1232.0
18:42:56.594;106.0;324.0
18:42:56.634;-147.0;-267.0
18:42:56.674;-253.0;-376.0
18:42:56.714;-233.0;-297.0
18:42:56.754;-241.0;-333.0
18:42:56.794;-220.0;-375.0
18:42:56.834;-154.0;-201.0
18:42:56.874;69.0;99.0
18:42:56.914;451.0;656.0
18:42:56.954;301.0;305.0
18:42:56.994;206.0;-3.0
18:42:57.034;-1061.0;8863.0
18:42:57.074;-439.0;3758.0
18:42:57.114;61.0;1274.0
18:42:57.154;355.0;249.0
18:42:57.194;668.0;118.0
18:42:57.234;968.0;567.0
18:42:57.274;804.0;669.0
18:42:57.314;194.0;-204.0
18:42:57.354;-314.0;-978.0
18:42:57.394;-511.0;-1177.0
18:42:57.434;-577.0;-1117.0
18:42:57.474;-593.0;-1049.0
18:42:57.514;-600.0;-1036.0
18:42:57.554;-576.0;-986.0
18:42:57.594;-534.0;-879.0
18:42:57.634;-371.0;-487.0
18:42:57.674;-83.0;24.0
18:42:57.714;-248.0;-296.0
18:42:57.754;-349.0;-461.0
18:42:57.794;-1442.0;8496.0
18:42:57.834;-606.0;3740.0
18:42:57.874;132.0;1452.0
18:42:57.914;687.0;714.0
18:42:57.954;1269.0;787.0
18:42:57.994;1738.0;1358.0
18:42:58.034;1646.0;1462.0
18:42:58.074;950.0;505.0
18:42:58.114;257.0;-474.0
18:42:58.154;-199.0;-937.0
18:42:58.194;-532.0;-1129.0
18:42:58.234;-614.0;-1279.0
18:42:58.274;-771.0;-1456.0
18:42:58.314;-829.0;-1500.0
18:42:58.354;-828.0;-1470.0
18:42:58.394;-746.0;-1387.0
18:42:58.434;-586.0;-973.0
18:42:58.474;-437.0;-703.0
18:42:58.514;-542.0;-921.0
18:42:58.554;221.0;-1121.0
18:42:58.594;-1558.0;1.0
18:42:58.634;-753.0;-180.0
18:42:58.674;-149.0;-170.0
18:42:58.714;397.0;214.0
18:42:58.754;956.0;922.0
18:42:58.794;1411.0;1749.0
18:42:58.834;1381.0;1786.0
18:42:58.874;959.0;809.0
18:42:58.914;636.0;160.0
18:42:58.954;445.0;-218.0
18:42:58.994;293.0;-461.0
18:42:59.034;69.0;-690.0
18:42:59.074;-210.0;-970.0
18:42:59.114;-361.0;-1144.0
18:42:59.154;-557.0;-1248.0
18:42:59.194;-571.0;-988.0
18:42:59.234;-509.0;-746.0
18:42:59.274;-648.0;-1048.0
18:42:59.314;-327.0;-1199.0
18:42:59.354;-2007.0;978.0
18:42:59.394;-1049.0;164.0
18:42:59.434;-405.0;-92.0
18:42:59.474;107.0;162.0
18:42:59.514;686.0;772.0
18:42:59.554;1063.0;1612.0
18:42:59.594;959.0;1546.0
18:42:59.634;511.0;606.0
18:42:59.674;300.0;-16.0
18:42:59.714;288.0;-74.0
18:42:59.754;328.0;2.0
18:42:59.794;290.0;-110.0
18:42:59.834;224.0;-256.0
18:42:59.874;104.0;-436.0
18:42:57.740;-95.0;-588.0
18:42:57.780;-107.0;-388.0
18:42:57.820;-70.0;-378.0
18:42:57.860;17.0;-140.0
18:42:57.900;335.0;315.0
18:42:57.940;600.0;1041.0
18:42:57.980;380.0;1079.0
18:42:58.020;-125.0;136.0
18:42:58.060;-530.0;-539.0
18:42:58.100;-665.0;-686.0
18:42:58.140;-687.0;-651.0
18:42:58.180;-683.0;-685.0
18:42:58.220;-671.0;-735.0
18:42:58.260;-670.0;-731.0
18:42:58.300;-615.0;-703.0
18:42:58.340;-491.0;-575.0
18:42:58.380;-373.0;-221.0
18:42:58.420;-141.0;41.0
18:42:58.460;-119.0;-174.0
18:42:58.500;328.0;-125.0
18:42:58.540;-1542.0;1825.0
18:42:58.580;-512.0;918.0
18:42:58.620;115.0;623.0
18:42:58.660;566.0;669.0
18:42:58.700;1010.0;1129.0
18:42:58.740;1372.0;1769.0
18:42:58.780;1010.0;1555.0
18:42:58.820;276.0;285.0
18:42:58.860;-286.0;-567.0
18:42:58.900;-563.0;-961.0
18:42:58.940;-625.0;-1028.0
18:42:58.980;-631.0;-1134.0
18:42:59.020;-607.0;-1293.0
18:42:59.060;-567.0;-1215.0
18:42:59.100;-540.0;-1151.0
18:42:59.140;-377.0;-759.0
18:42:59.180;-254.0;-534.0
18:42:59.220;-365.0;-842.0
18:42:59.260;-146.0;-979.0
18:42:59.300;-1369.0;2127.0
18:42:59.340;-630.0;776.0
18:42:59.380;23.0;344.0
18:42:59.420;571.0;514.0
18:42:59.460;1194.0;1163.0
18:42:59.500;1620.0;1959.0
18:42:59.540;1494.0;1928.0
18:42:59.580;919.0;833.0
18:42:59.620;425.0;2.0
18:42:59.660;24.0;-419.0
18:42:59.700;-274.0;-697.0
18:42:59.740;-493.0;-927.0
18:42:59.780;-683.0;-1165.0
18:42:59.820;-712.0;-1259.0
18:42:59.860;-693.0;-1226.0
18:42:59.900;-577.0;-876.0
18:42:59.940;-462.0;-536.0
18:42:59.980;-571.0;-821.0
18:43:00.020;-566.0;-1019.0
18:43:00.060;-1624.0;7014.0
18:43:00.100;-909.0;2768.0
18:43:00.140;-222.0;712.0
18:43:00.180;303.0;88.0
18:43:00.220;982.0;373.0
18:43:00.260;1479.0;1055.0
18:43:00.300;1499.0;1342.0
18:43:00.340;1079.0;555.0
18:43:00.380;686.0;-180.0
18:43:00.420;431.0;-441.0
18:43:00.460;285.0;-532.0
18:43:00.500;160.0;-653.0
18:43:00.540;-54.0;-820.0
18:43:00.580;-296.0;-1020.0
18:43:00.620;-509.0;-1255.0
18:43:00.660;-691.0;-1318.0
18:43:00.700;-494.0;-841.0
18:43:00.740;-684.0;-936.0
18:43:00.780;-836.0;-1188.0
18:43:00.820;814.0;-1475.0
18:43:00.860;-997.0;-922.0
18:43:00.900;-723.0;-725.0
18:43:00.940;-524.0;-433.0
18:43:00.980;-74.0;128.0
18:43:01.020;515.0;968.0
18:43:01.060;846.0;1684.0
18:43:01.100;560.0;1362.0
18:43:01.140;99.0;442.0
18:43:01.180;-174.0;7.0
18:43:01.220;-178.0;-123.0
18:43:01.260;-64.0;-123.0
18:43:01.300;17.0;-162.0
18:43:01.340;61.0;-246.0
18:43:01.380;33.0;-367.0
18:43:01.420;-2.0;-424.0
18:43:01.460;19.0;-218.0
18:43:01.500;-34.0;-220.0
18:43:01.540;-364.0;-787.0
18:43:01.580;-350.0;-1227.0
18:43:01.620;-1969.0;1837.0
18:43:01.660;-1236.0;272.0
18:43:01.700;-708.0;-478.0
18:43:00.702;-714.0;-709.0
18:43:00.742;-763.0;-780.0
18:43:00.782;-752.0;-753.0
18:43:00.822;-571.0;-402.0
18:43:00.862;-397.0;-97.0
18:43:00.902;-498.0;-335.0
18:43:00.942;-457.0;-519.0
18:43:00.982;-1641.0;6924.0
18:43:01.022;-685.0;3126.0
18:43:01.062;52.0;1283.0
18:43:01.102;512.0;679.0
18:43:01.142;1068.0;844.0
18:43:01.182;1474.0;1390.0
18:43:01.222;1269.0;1473.0
18:43:01.262;551.0;322.0
18:43:01.302;-84.0;-589.0
18:43:01.342;-338.0;-850.0
18:43:01.382;-521.0;-1051.0
18:43:01.422;-724.0;-1285.0
18:43:01.462;-833.0;-1443.0
18:43:01.502;-855.0;-1485.0
18:43:01.542;-845.0;-1446.0
18:43:01.582;-716.0;-1290.0
18:43:01.622;-452.0;-676.0
18:43:01.662;-577.0;-922.0
18:43:01.702;-573.0;-1104.0
18:43:01.742;914.0;3106.0
18:43:01.782;-7.0;770.0
18:43:01.822;-32.0;-112.0
18:43:01.862;108.0;-283.0
18:43:01.902;476.0;74.0
18:43:01.942;1062.0;867.0
18:43:01.982;1170.0;1354.0
18:43:02.022;822.0;903.0
18:43:02.062;458.0;114.0
18:43:02.102;257.0;-195.0
18:43:02.142;229.0;-282.0
18:43:02.182;174.0;-433.0
18:43:02.222;130.0;-529.0
18:43:02.262;1.0;-686.0
18:43:02.302;-136.0;-815.0
18:43:02.342;-303.0;-964.0
18:43:02.382;-405.0;-838.0
18:43:02.422;-298.0;-591.0
18:43:02.462;-605.0;-1075.0
18:43:02.502;-712.0;-1406.0
18:43:02.542;-1963.0;6087.0
18:43:02.582;-1234.0;2122.0
18:43:02.622;-646.0;279.0
18:43:02.662;-127.0;-348.0
18:43:02.702;453.0;-138.0
18:43:02.742;939.0;626.0
18:43:02.782;882.0;854.0
18:43:02.822;346.0;33.0
18:43:02.862;-154.0;-656.0
18:43:02.902;-302.0;-808.0
18:43:02.942;-271.0;-731.0
18:43:02.982;-208.0;-678.0
18:43:03.022;-65.0;-616.0
18:43:03.062;38.0;-503.0
18:43:03.102;111.0;-430.0
18:43:03.142;167.0;-379.0
18:43:03.182;336.0;-13.0
18:43:03.222;289.0;-72.0
18:43:03.262;30.0;-508.0
18:43:03.302;837.0;-1117.0
18:43:03.342;-1174.0;-351.0
18:43:03.382;-629.0;-588.0
18:43:03.422;-326.0;-623.0
18:43:03.462;-6.0;-319.0
18:43:03.502;425.0;346.0
18:43:03.542;748.0;1102.0
18:43:03.582;500.0;875.0
18:43:03.622;48.0;-200.0
18:43:03.662;-242.0;-788.0
18:43:03.702;-339.0;-946.0
18:43:03.742;-309.0;-864.0
18:43:03.782;-259.0;-876.0
18:43:03.822;-286.0;-851.0
18:43:03.862;-295.0;-863.0
18:43:03.902;-237.0;-735.0
18:43:03.942;-96.0;-339.0
18:43:03.982;156.0;122.0
18:43:04.022;134.0;-45.0
18:43:04.062;315.0;-175.0
18:43:04.102;-1007.0;5853.0
18:43:04.142;-283.0;2652.0
18:43:04.182;203.0;1022.0
18:43:04.222;518.0;423.0
18:43:04.262;839.0;562.0
18:43:04.302;1255.0;1055.0
18:43:04.342;994.0;1099.0
18:43:04.382;298.0;-2.0
18:43:04.422;-226.0;-908.0
18:43:04.462;-510.0;-1258.0
18:43:04.502;-647.0;-1292.0
18:43:04.542;-644.0;-1690.0
18:43:04.582;-634.0;-1476.0
18:43:04.622;-673.0;-1412.0
18:43:04.662;-665.0;-1258.0
18:43:03.512;-562.0;-1020.0
18:43:03.552;-218.0;-691.0
18:43:03.592;842.0;5482.0
18:43:03.632;354.0;2381.0
18:43:03.672;370.0;728.0
18:43:03.712;405.0;66.0
18:43:03.752;626.0;78.0
18:43:03.792;882.0;567.0
18:43:03.832;915.0;922.0
18:43:03.872;298.0;121.0
18:43:03.912;-324.0;-927.0
18:43:03.952;-629.0;-1320.0
18:43:03.992;-750.0;-1387.0
18:43:04.032;-787.0;-1436.0
18:43:04.072;-802.0;-1510.0
18:43:04.112;-786.0;-1523.0
18:43:04.152;-746.0;-1478.0
18:43:04.192;-652.0;-1352.0
18:43:04.232;-375.0;-768.0
18:43:04.272;-364.0;-723.0
18:43:04.312;-411.0;-925.0
18:43:04.352;1130.0;-1109.0
18:43:04.392;-513.0;-355.0
18:43:04.432;-91.0;-270.0
18:43:04.472;269.0;2.0
18:43:04.512;662.0;402.0
18:43:04.552;1203.0;1119.0
18:43:04.592;1422.0;1643.0
18:43:04.632;834.0;1069.0
18:43:04.672;209.0;-222.0
18:43:04.712;-258.0;-823.0
18:43:04.752;-535.0;-1024.0
18:43:04.792;-710.0;-1132.0
18:43:04.832;-819.0;-1227.0
18:43:04.872;-851.0;-1290.0
18:43:04.912;-898.0;-1213.0
18:43:04.952;-845.0;-1141.0
18:43:04.992;-591.0;-477.0
18:43:05.032;-694.0;-675.0
18:43:05.072;-719.0;-869.0
18:43:05.112;1349.0;786.0
18:43:05.152;153.0;137.0
18:43:05.192;36.0;48.0
18:43:05.232;107.0;160.0
18:43:05.272;534.0;874.0
18:43:05.312;1140.0;1704.0
18:43:05.352;1304.0;2281.0
18:43:05.392;876.0;1664.0
18:43:05.432;363.0;544.0
18:43:05.472;-31.0;-24.0
18:43:05.512;-165.0;-231.0
18:43:05.552;-339.0;-589.0
18:43:05.592;-546.0;-882.0
18:43:05.632;-752.0;-1127.0
18:43:05.672;-836.0;-1160.0
18:43:05.712;-706.0;-566.0
18:43:05.752;-835.0;-891.0
18:43:05.792;-864.0;-1119.0
18:43:05.832;1032.0;847.0
18:43:05.872;-155.0;-195.0
18:43:05.912;-301.0;-434.0
18:43:05.952;-201.0;-284.0
18:43:05.992;166.0;249.0
18:43:06.032;687.0;1084.0
18:43:06.072;920.0;1674.0
18:43:06.112;567.0;1176.0
18:43:06.152;117.0;304.0
18:43:06.192;31.0;40.0
18:43:06.232;-48.0;-41.0
18:43:06.272;33.0;-32.0
18:43:06.312;43.0;-71.0
18:43:06.352;27.0;-150.0
18:43:06.392;-32.0;-240.0
18:43:06.432;129.0;240.0
18:43:06.472;-85.0;27.0
18:43:06.512;-406.0;-521.0
18:43:06.552;1183.0;-1040.0
18:43:06.592;-860.0;-820.0
18:43:06.632;-871.0;-804.0
18:43:06.672;-756.0;-535.0
18:43:06.712;-346.0;-19.0
18:43:06.752;240.0;765.0
18:43:06.792;579.0;1535.0
18:43:06.832;275.0;1230.0
18:43:06.872;-275.0;255.0
18:43:06.912;-539.0;-215.0
18:43:06.952;-661.0;-302.0
18:43:06.992;-658.0;-315.0
18:43:07.032;-667.0;-418.0
18:43:07.072;-621.0;-469.0
18:43:07.112;-503.0;-399.0
18:43:07.152;-134.0;303.0
18:43:07.192;-103.0;263.0
18:43:07.232;-179.0;-73.0
18:43:07.272;1765.0;-411.0
18:43:07.312;-55.0;-177.0
18:43:07.352;-2.0;10.0
18:43:07.392;159.0;203.0
18:43:07.432;375.0;565.0
18:43:07.472;689.0;1143.0
18:43:08.293;-234.0;-502.0
18:43:08.333;533.0;510.0
18:43:08.373;567.0;197.0
18:43:08.413;513.0;-104.0
18:43:08.453;478.0;-163.0
18:43:08.493;390.0;-268.0
18:43:08.533;290.0;-377.0
18:43:08.573;50.0;-616.0
18:43:08.613;-164.0;-845.0
18:43:08.653;-379.0;-1048.0
18:43:08.693;-498.0;-1100.0
18:43:08.733;-353.0;-574.0
18:43:08.773;-570.0;-839.0
18:43:08.813;-685.0;-987.0
18:43:08.853;1235.0;1134.0
18:43:08.893;-44.0;59.0
18:43:08.933;-294.0;-294.0
18:43:08.973;-210.0;-180.0
18:43:09.013;95.0;334.0
18:43:09.053;636.0;1101.0
18:43:09.093;828.0;1725.0
18:43:09.133;387.0;1204.0
18:43:09.173;-12.0;286.0
18:43:09.213;-138.0;36.0
18:43:09.253;-165.0;11.0
18:43:09.293;-50.0;49.0
18:43:09.333;-1.0;-37.0
18:43:09.373;-5.0;-208.0
18:43:09.413;-23.0;-264.0
18:43:09.453;-46.0;-228.0
18:43:09.493;-33.0;-130.0
18:43:09.533;-32.0;-51.0
18:43:09.573;-398.0;-628.0
18:43:09.613;-602.0;-1154.0
18:43:09.653;-1684.0;6265.0
18:43:09.693;-1140.0;2129.0
18:43:09.733;-633.0;137.0
18:43:09.773;-185.0;-502.0
18:43:09.813;320.0;-282.0
18:43:09.853;798.0;510.0
18:43:09.893;827.0;675.0
18:43:09.933;370.0;-219.0
18:43:09.973;-6.0;-961.0
18:43:10.013;-163.0;-1126.0
18:43:10.053;-167.0;-1055.0
18:43:10.093;-136.0;-1003.0
18:43:10.133;-71.0;-991.0
18:43:10.173;-110.0;-975.0
18:43:10.213;6.0;-789.0
18:43:10.253;233.0;-266.0
18:43:10.293;417.0;113.0
18:43:10.333;272.0;-220.0
18:43:10.373;286.0;-593.0
18:43:10.413;-1276.0;4305.0
18:43:10.453;-653.0;1608.0
18:43:10.493;-334.0;183.0
18:43:10.533;-128.0;-293.0
18:43:10.573;356.0;5.0
18:43:10.613;826.0;708.0
18:43:10.653;681.0;760.0
18:43:10.693;135.0;-185.0
18:43:10.733;-213.0;-893.0
18:43:10.773;-415.0;-1080.0
18:43:10.813;-476.0;-941.0
18:43:10.853;-484.0;-954.0
18:43:10.893;-467.0;-940.0
18:43:10.933;-473.0;-952.0
18:43:10.973;-377.0;-864.0
18:43:11.013;-177.0;-181.0
18:43:11.053;-264.0;-267.0
18:43:11.093;-270.0;-366.0
18:43:11.133;1881.0;112.0
18:43:11.173;56.0;109.0
18:43:11.213;51.0;121.0
18:43:11.253;132.0;365.0
18:43:11.293;364.0;762.0
18:43:11.333;610.0;1285.0
18:43:11.373;606.0;1637.0
18:43:11.413;-5.0;909.0
18:43:11.453;-566.0;-230.0
18:43:11.493;-817.0;-802.0
18:43:11.533;-884.0;-847.0
18:43:11.573;-826.0;-908.0
18:43:11.613;-779.0;-897.0
18:43:11.653;-742.0;-945.0
18:43:11.693;-629.0;-861.0
18:43:11.733;-356.0;-314.0
18:43:11.773;-433.0;-423.0
18:43:11.813;-426.0;-676.0
18:43:11.853;1299.0;-973.0
18:43:11.893;-454.0;-566.0
18:43:11.933;-74.0;-189.0
18:43:11.973;288.0;270.0
18:43:12.013;727.0;800.0
18:43:12.053;1192.0;1533.0
18:43:12.093;1414.0;2067.0
18:43:12.133;959.0;1522.0
18:43:12.173;267.0;342.0
18:43:12.213;-249.0;-412.0
18:43:12.253;-526.0;-712.0
18:43:16.637;-679.0;-896.0
18:43:16.677;-811.0;-1164.0
18:43:16.717;-739.0;-1088.0
18:43:16.757;-646.0;-592.0
18:43:16.797;-767.0;-860.0
18:43:16.837;-828.0;-1103.0
18:43:16.877;783.0;3321.0
18:43:16.917;-161.0;1057.0
18:43:16.957;-273.0;-14.0
18:43:16.997;-178.0;-260.0
18:43:17.037;234.0;75.0
18:43:17.077;792.0;916.0
18:43:17.117;1004.0;1427.0
18:43:17.157;586.0;836.0
18:43:17.197;182.0;-18.0
18:43:17.237;3.0;-213.0
18:43:17.277;-2.0;-122.0
18:43:17.317;-42.0;-189.0
18:43:17.357;-113.0;-330.0
18:43:17.397;-172.0;-433.0
18:43:17.437;-242.0;-557.0
18:43:17.477;-404.0;-746.0
18:43:17.517;-566.0;-693.0
18:43:17.557;-703.0;-643.0
18:43:17.597;-976.0;-1195.0
18:43:17.637;-658.0;-1373.0
18:43:17.677;-2525.0;945.0
18:43:17.717;-1488.0;-64.0
18:43:17.757;-718.0;-369.0
18:43:17.797;-126.0;-256.0
18:43:17.837;393.0;296.0
18:43:17.877;871.0;1045.0
18:43:17.917;731.0;1070.0
18:43:17.957;274.0;58.0
18:43:17.997;60.0;-520.0
18:43:18.037;-88.0;-636.0
18:43:18.077;-65.0;-607.0
18:43:18.117;32.0;-535.0
18:43:18.157;72.0;-528.0
18:43:18.197;112.0;-472.0
18:43:18.237;188.0;-453.0
18:43:18.277;215.0;-339.0
18:43:18.317;406.0;41.0
18:43:18.357;123.0;-444.0
18:43:18.397;-171.0;-862.0
18:43:18.437;-1285.0;8592.0
18:43:18.477;-908.0;3129.0
18:43:18.517;-452.0;390.0
18:43:18.557;-124.0;-677.0
18:43:18.597;338.0;-700.0
18:43:18.637;796.0;-90.0
18:43:18.677;767.0;143.0
18:43:18.717;250.0;-689.0
18:43:18.757;-135.0;-1404.0
18:43:18.797;-274.0;-1514.0
18:43:18.837;-265.0;-1421.0
18:43:18.877;-242.0;-1338.0
18:43:18.917;-283.0;-1316.0
18:43:18.957;-317.0;-1292.0
18:43:18.997;-252.0;-1174.0
18:43:19.037;-106.0;-979.0
18:43:19.077;285.0;-210.0
18:43:19.117;239.0;-163.0
18:43:19.157;122.0;-477.0
18:43:19.197;1988.0;-625.0
18:43:19.237;154.0;-181.0
18:43:19.277;148.0;-123.0
18:43:19.317;178.0;31.0
18:43:19.357;317.0;312.0
18:43:19.397;753.0;1017.0
18:43:19.437;832.0;1508.0
18:43:19.477;287.0;942.0
18:43:19.517;-394.0;-178.0
18:43:19.557;-754.0;-713.0
18:43:19.597;-883.0;-753.0
18:43:19.637;-919.0;-852.0
18:43:19.677;-964.0;-942.0
18:43:19.717;-867.0;-967.0
18:43:19.757;-799.0;-915.0
18:43:19.797;-718.0;-798.0
18:43:19.837;-525.0;-594.0
18:43:19.877;-355.0;-103.0
18:43:19.917;-420.0;-446.0
18:43:19.957;-414.0;-642.0
18:43:19.997;45.0;7387.0
18:43:20.037;-1.0;3107.0
18:43:20.077;275.0;1040.0
18:43:20.117;562.0;230.0
18:43:20.157;913.0;275.0
18:43:20.197;1356.0;902.0
18:43:20.237;1367.0;1207.0
18:43:20.277;766.0;284.0
18:43:20.317;122.0;-844.0
18:43:20.357;-135.0;-1246.0
18:43:20.397;-370.0;-1410.0
18:43:20.437;-485.0;-1529.0
18:43:20.477;-591.0;-1670.0
18:43:20.517;-632.0;-1687.0
18:43:20.557;-650.0;-1636.0
18:43:20.597;-509.0;-1381.0
18:43:17.990;-302.0;-749.0
18:43:18.030;-1725.0;2386.0
18:43:18.070;-995.0;449.0
18:43:18.110;-470.0;-384.0
18:43:18.150;-60.0;-434.0
18:43:18.190;516.0;59.0
18:43:18.230;1023.0;875.0
18:43:18.270;934.0;948.0
18:43:18.310;403.0;15.0
18:43:18.350;2.0;-655.0
18:43:18.390;-134.0;-763.0
18:43:18.430;-112.0;-658.0
18:43:18.470;-142.0;-693.0
18:43:18.510;-150.0;-654.0
18:43:18.550;-164.0;-631.0
18:43:18.590;-66.0;-563.0
18:43:18.630;193.0;15.0
18:43:18.670;340.0;219.0
18:43:18.710;206.0;-80.0
18:43:18.750;829.0;-242.0
18:43:18.790;-1217.0;1040.0
18:43:18.830;-545.0;412.0
18:43:18.870;-114.0;209.0
18:43:18.910;214.0;273.0
18:43:18.950;556.0;716.0
18:43:18.990;724.0;1327.0
18:43:19.030;368.0;1017.0
18:43:19.070;-211.0;-119.0
18:43:19.110;-467.0;-689.0
18:43:19.150;-578.0;-780.0
18:43:19.190;-537.0;-826.0
18:43:19.230;-557.0;-991.0
18:43:19.270;-539.0;-1081.0
18:43:19.310;-478.0;-1068.0
18:43:19.350;-322.0;-718.0
18:43:19.390;-81.0;-419.0
18:43:19.430;-164.0;-797.0
18:43:19.470;-117.0;-1102.0
18:43:19.510;-1085.0;6341.0
18:43:19.550;-310.0;2485.0
18:43:19.590;357.0;626.0
18:43:19.630;790.0;23.0
18:43:19.670;1197.0;182.0
18:43:19.710;1567.0;866.0
18:43:19.750;1403.0;924.0
18:43:19.790;740.0;-190.0
18:43:19.830;234.0;-1194.0
18:43:19.870;-111.0;-1407.0
18:43:19.910;-374.0;-1557.0
18:43:19.950;-527.0;-1726.0
18:43:19.990;-619.0;-1817.0
18:43:20.030;-665.0;-1827.0
18:43:20.070;-569.0;-1607.0
18:43:20.110;-440.0;-950.0
18:43:20.150;-527.0;-1172.0
18:43:20.190;-572.0;-1306.0
18:43:20.230;917.0;3012.0
18:43:20.270;44.0;819.0
18:43:20.310;-26.0;-111.0
18:43:20.350;37.0;-305.0
18:43:20.390;468.0;136.0
18:43:20.430;1083.0;1105.0
18:43:20.470;1246.0;1583.0
18:43:20.510;896.0;1139.0
18:43:20.550;465.0;314.0
18:43:20.590;246.0;24.0
18:43:20.630;100.0;-24.0
18:43:20.670;-10.0;-187.0
18:43:20.710;-281.0;-451.0
18:43:20.750;-552.0;-738.0
18:43:20.790;-747.0;-909.0
18:43:20.830;-803.0;-869.0
18:43:20.870;-753.0;-438.0
18:43:20.910;-945.0;-738.0
18:43:20.950;-983.0;-992.0
18:43:20.990;868.0;1680.0
18:43:21.030;-227.0;261.0
18:43:21.070;-380.0;-210.0
18:43:21.110;-314.0;-234.0
18:43:21.150;-7.0;176.0
18:43:21.190;512.0;956.0
18:43:21.230;721.0;1438.0
18:43:21.270;381.0;931.0
18:43:21.310;-40.0;-25.0
18:43:21.350;-184.0;-364.0
18:43:21.390;-95.0;-262.0
18:43:21.430;25.0;-183.0
18:43:21.470;87.0;-222.0
18:43:21.510;99.0;-319.0
18:43:21.550;107.0;-339.0
18:43:21.590;167.0;-213.0
18:43:21.630;228.0;244.0
18:43:21.670;-84.0;-254.0
18:43:21.710;-330.0;-681.0
18:43:21.750;-17.0;6163.0
18:43:21.790;-414.0;2186.0
18:43:21.830;-402.0;265.0
18:43:21.870;-292.0;-406.0
18:43:21.910;115.0;-250.0
18:43:21.950;650.0;455.0
18:43:21.542;711.0;905.0
18:43:21.582;90.0;-142.0
18:43:21.622;-28.0;-311.0
18:43:21.662;278.0;196.0
18:43:21.702;529.0;895.0
18:43:21.742;305.0;779.0
18:43:21.782;-207.0;-198.0
18:43:21.822;-460.0;-710.0
18:43:21.862;-542.0;-761.0
18:43:21.902;-491.0;-710.0
18:43:21.942;-465.0;-781.0
18:43:21.982;-456.0;-813.0
18:43:22.022;-389.0;-777.0
18:43:22.062;-171.0;-557.0
18:43:22.102;142.0;111.0
18:43:22.142;17.0;-184.0
18:43:22.182;-3.0;-302.0
18:43:22.222;1105.0;5493.0
18:43:22.262;449.0;2418.0
18:43:22.302;343.0;788.0
18:43:22.342;364.0;122.0
18:43:22.382;634.0;230.0
18:43:22.422;849.0;727.0
18:43:22.462;752.0;950.0
18:43:22.502;-5.0;52.0
18:43:22.542;-529.0;-963.0
18:43:22.582;-875.0;-1342.0
18:43:22.622;-961.0;-1357.0
18:43:22.662;-951.0;-1402.0
18:43:22.702;-924.0;-1430.0
18:43:22.742;-870.0;-1346.0
18:43:22.782;-773.0;-1250.0
18:43:22.822;-660.0;-953.0
18:43:22.862;-505.0;-729.0
18:43:22.902;-520.0;-989.0
18:43:22.942;178.0;-1058.0
18:43:22.982;-1563.0;11.0
18:43:23.022;-641.0;-157.0
18:43:23.062;38.0;7.0
18:43:23.102;618.0;488.0
18:43:23.142;1189.0;1191.0
18:43:23.182;1526.0;1977.0
18:43:23.222;1307.0;1857.0
18:43:23.262;765.0;784.0
18:43:23.302;278.0;10.0
18:43:23.342;-33.0;-369.0
18:43:23.382;-264.0;-665.0
18:43:23.422;-376.0;-867.0
18:43:23.462;-607.0;-1189.0
18:43:23.502;-714.0;-1287.0
18:43:23.542;-665.0;-1047.0
18:43:23.582;-438.0;-488.0
18:43:23.622;-600.0;-855.0
18:43:23.662;-659.0;-1037.0
18:43:23.702;-1480.0;8772.0
18:43:23.742;-971.0;3395.0
18:43:23.782;-418.0;694.0
18:43:23.822;32.0;-246.0
18:43:23.862;607.0;-203.0
18:43:23.902;1185.0;453.0
18:43:23.942;1284.0;827.0
18:43:23.982;893.0;212.0
18:43:24.022;616.0;-331.0
18:43:24.062;410.0;-431.0
18:43:24.102;344.0;-385.0
18:43:24.142;233.0;-410.0
18:43:24.182;93.0;-585.0
18:43:24.222;-57.0;-736.0
18:43:24.262;-214.0;-801.0
18:43:24.302;-217.0;-344.0
18:43:24.342;-564.0;-824.0
18:43:24.382;-852.0;-1173.0
18:43:24.422;510.0;2876.0
18:43:24.462;-441.0;622.0
18:43:24.502;-564.0;-403.0
18:43:24.542;-457.0;-513.0
18:43:24.582;-57.0;-219.0
18:43:24.622;471.0;607.0
18:43:24.662;603.0;1092.0
18:43:24.702;200.0;546.0
18:43:24.742;-169.0;-288.0
18:43:24.782;-311.0;-584.0
18:43:24.822;-288.0;-642.0
18:43:24.862;-208.0;-663.0
18:43:24.902;-163.0;-1026.0
18:43:24.942;-26.0;-768.0
18:43:24.982;163.0;-414.0
18:43:25.022;365.0;189.0
18:43:25.062;183.0;-163.0
18:43:25.102;31.0;-477.0
18:43:25.142;577.0;5895.0
18:43:25.182;-47.0;2123.0
18:43:25.222;-16.0;279.0
18:43:25.262;-37.0;-396.0
18:43:25.302;168.0;-390.0
18:43:25.342;488.0;189.0
18:43:25.382;544.0;523.0
18:43:25.422;107.0;-151.0
18:43:25.462;-323.0;-864.0
18:43:25.502;-474.0;-1078.0
18:43:27.865;-497.0;-1065.0
18:43:27.905;-616.0;-1277.0
18:43:27.945;-419.0;-772.0
18:43:27.985;-525.0;-830.0
18:43:28.025;-615.0;-1130.0
18:43:28.065;1340.0;-1071.0
18:43:28.105;-398.0;-700.0
18:43:28.145;-246.0;-436.0
18:43:28.185;81.0;10.0
18:43:28.225;644.0;649.0
18:43:28.265;1214.0;1518.0
18:43:28.305;1531.0;2167.0
18:43:28.345;1129.0;1791.0
18:43:28.385;524.0;739.0
18:43:28.425;106.0;185.0
18:43:28.465;-168.0;-88.0
18:43:28.505;-427.0;-421.0
18:43:28.545;-740.0;-776.0
18:43:28.585;-927.0;-993.0
18:43:28.625;-975.0;-1084.0
18:43:28.665;-989.0;-791.0
18:43:28.705;-795.0;-485.0
18:43:28.745;-919.0;-810.0
18:43:28.785;-910.0;-1101.0
18:43:28.825;-2191.0;5386.0
18:43:28.865;-1316.0;1961.0
18:43:28.905;-636.0;425.0
18:43:28.945;-1.0;-17.0
18:43:28.985;551.0;289.0
18:43:29.025;1083.0;916.0
18:43:29.065;1089.0;1098.0
18:43:29.105;671.0;337.0
18:43:29.145;487.0;-196.0
18:43:29.185;428.0;-289.0
18:43:29.225;378.0;-362.0
18:43:29.265;281.0;-501.0
18:43:29.305;184.0;-615.0
18:43:29.345;63.0;-724.0
18:43:29.385;-69.0;-838.0
18:43:29.425;-86.0;-575.0
18:43:29.465;-320.0;-717.0
18:43:29.505;-510.0;-1186.0
18:43:29.545;376.0;-1492.0
18:43:29.585;-1676.0;-736.0
18:43:29.625;-1030.0;-773.0
18:43:29.665;-541.0;-559.0
18:43:29.705;-1.0;-97.0
18:43:29.745;631.0;640.0
18:43:29.785;964.0;1301.0
18:43:29.825;702.0;1162.0
18:43:29.865;237.0;270.0
18:43:29.905;-57.0;-162.0
18:43:29.945;-136.0;-229.0
18:43:29.985;-201.0;-235.0
18:43:30.025;-106.0;-254.0
18:43:30.065;-57.0;-305.0
18:43:30.105;99.0;-196.0
18:43:30.145;149.0;-96.0
18:43:30.185;254.0;56.0
18:43:30.225;455.0;594.0
18:43:30.265;173.0;135.0
18:43:30.305;-66.0;-226.0
18:43:30.345;294.0;6615.0
18:43:30.385;-273.0;2521.0
18:43:30.425;-413.0;380.0
18:43:30.465;-263.0;-449.0
18:43:30.505;29.0;-471.0
18:43:30.545;388.0;110.0
18:43:30.585;408.0;433.0
18:43:30.625;-84.0;-135.0
18:43:30.665;-459.0;-878.0
18:43:30.705;-597.0;-1103.0
18:43:30.745;-633.0;-1154.0
18:43:30.785;-601.0;-1133.0
18:43:30.825;-539.0;-1074.0
18:43:30.865;-458.0;-1031.0
18:43:30.905;-338.0;-1061.0
18:43:30.945;-252.0;-639.0
18:43:30.985;-86.0;-380.0
18:43:31.025;-98.0;-561.0
18:43:31.065;422.0;-643.0
18:43:31.105;-1247.0;1495.0
18:43:31.145;-213.0;691.0
18:43:31.185;406.0;346.0
18:43:31.225;847.0;505.0
18:43:31.265;1266.0;992.0
18:43:31.305;1494.0;1524.0
18:43:31.345;1077.0;1284.0
18:43:31.385;353.0;93.0
18:43:31.425;-191.0;-731.0
18:43:31.465;-497.0;-1061.0
18:43:31.505;-592.0;-1073.0
18:43:31.545;-598.0;-1138.0
18:43:31.585;-589.0;-1203.0
18:43:31.625;-538.0;-1150.0
18:43:31.665;-325.0;-715.0
18:43:31.705;-316.0;-630.0
18:43:31.745;-339.0;-820.0
18:43:31.785;874.0;-1030.0
18:43:31.825;-1003.0;-476.0
18:43:40.921;-285.0;-217.0
18:43:40.961;589.0;843.0
18:43:41.001;902.0;1455.0
18:43:41.041;555.0;915.0
18:43:41.081;143.0;60.0
18:43:41.121;14.0;-211.0
18:43:41.161;33.0;-165.0
18:43:41.201;169.0;-67.0
18:43:41.241;162.0;-109.0
18:43:41.281;207.0;-97.0
18:43:41.321;293.0;204.0
18:43:41.361;431.0;514.0
18:43:41.401;71.0;-60.0
18:43:41.441;-31.0;-546.0
18:43:41.481;-1417.0;7391.0
18:43:41.521;-919.0;2838.0
18:43:41.561;-524.0;493.0
18:43:41.601;-272.0;-387.0
18:43:41.641;164.0;-355.0
18:43:41.681;546.0;227.0
18:43:41.721;444.0;357.0
18:43:41.761;-38.0;-403.0
18:43:41.801;-437.0;-1061.0
18:43:41.841;-579.0;-1179.0
18:43:41.881;-588.0;-1138.0
18:43:41.921;-588.0;-1156.0
18:43:41.961;-581.0;-1182.0
18:43:42.001;-491.0;-1163.0
18:43:42.041;-276.0;-479.0
18:43:42.081;-277.0;-651.0
18:43:42.121;-369.0;-965.0
18:43:42.161;1620.0;-12.0
18:43:42.201;91.0;-291.0
18:43:42.241;295.0;-156.0
18:43:42.281;493.0;154.0
18:43:42.321;835.0;601.0
18:43:42.361;1193.0;1314.0
18:43:42.401;1335.0;1813.0
18:43:42.441;819.0;1232.0
18:43:42.481;157.0;108.0
18:43:42.521;-315.0;-512.0
18:43:42.561;-606.0;-899.0
18:43:42.601;-739.0;-1179.0
18:43:42.641;-816.0;-1307.0
18:43:42.681;-804.0;-1394.0
18:43:42.721;-692.0;-1222.0
18:43:42.761;-604.0;-623.0
18:43:42.801;-655.0;-923.0
18:43:42.841;-677.0;-1120.0
18:43:42.881;631.0;4826.0
18:43:42.921;-54.0;1635.0
18:43:42.961;-55.0;124.0
18:43:43.001;76.0;-312.0
18:43:43.041;568.0;17.0
18:43:43.081;1200.0;873.0
18:43:43.121;1420.0;1386.0
18:43:43.161;1034.0;789.0
18:43:43.201;507.0;-72.0
18:43:43.241;202.0;-423.0
18:43:43.281;-1.0;-611.0
18:43:43.321;-257.0;-918.0
18:43:43.361;-357.0;-1165.0
18:43:43.401;-667.0;-1354.0
18:43:43.441;-840.0;-1471.0
18:43:43.481;-791.0;-1122.0
18:43:43.521;-767.0;-996.0
18:43:43.561;-917.0;-1239.0
18:43:43.601;-91.0;-1267.0
18:43:43.641;-2009.0;-251.0
18:43:43.681;-1165.0;-480.0
18:43:43.721;-558.0;-400.0
18:43:43.761;-22.0;31.0
18:43:43.801;621.0;738.0
18:43:43.841;994.0;1442.0
18:43:43.881;783.0;1329.0
18:43:43.921;240.0;519.0
18:43:43.961;-11.0;4.0
18:43:44.001;3.0;23.0
18:43:44.041;86.0;30.0
18:43:44.081;107.0;-28.0
18:43:44.121;90.0;-214.0
18:43:44.161;89.0;-295.0
18:43:44.201;-57.0;-399.0
18:43:44.241;-8.0;-189.0
18:43:44.281;-73.0;-256.0
18:43:44.321;-413.0;-794.0
18:43:44.361;125.0;-1209.0
18:43:44.401;-1810.0;-518.0
18:43:44.441;-1074.0;-745.0
18:43:44.481;-497.0;-569.0
18:43:44.521;48.0;-164.0
18:43:44.561;608.0;463.0
18:43:44.601;897.0;1192.0
18:43:44.641;702.0;1088.0
18:43:44.681;298.0;106.0
18:43:44.721;-75.0;-514.0
18:43:44.761;-128.0;-532.0
18:43:44.801;-82.0;-557.0
18:43:44.841;-92.0;-603.0
18:43:44.881;-5.0;-606.0
18:43:43.076;-14.0;-597.0
18:43:43.116;-181.0;-765.0
18:43:43.156;-4.0;-972.0
18:43:43.196;-1938.0;752.0
18:43:43.236;-1029.0;-37.0
18:43:43.276;-417.0;-244.0
18:43:43.316;69.0;-7.0
18:43:43.356;653.0;649.0
18:43:43.396;1037.0;1365.0
18:43:43.436;848.0;1303.0
18:43:43.476;351.0;349.0
18:43:43.516;-33.0;-306.0
18:43:43.556;-144.0;-472.0
18:43:43.596;-140.0;-485.0
18:43:43.636;-111.0;-544.0
18:43:43.676;-96.0;-581.0
18:43:43.716;20.0;-483.0
18:43:43.756;82.0;-435.0
18:43:43.796;305.0;71.0
18:43:43.836;417.0;279.0
18:43:43.876;332.0;10.0
18:43:43.916;1156.0;-235.0
18:43:43.956;-947.0;562.0
18:43:43.996;-277.0;365.0
18:43:44.036;69.0;335.0
18:43:44.076;328.0;491.0
18:43:44.116;681.0;970.0
18:43:44.156;841.0;1418.0
18:43:44.196;468.0;1105.0
18:43:44.236;-162.0;37.0
18:43:44.276;-569.0;-535.0
18:43:44.316;-708.0;-674.0
18:43:44.356;-700.0;-725.0
18:43:44.396;-705.0;-739.0
18:43:44.436;-695.0;-829.0
18:43:44.476;-609.0;-810.0
18:43:44.516;-541.0;-717.0
18:43:44.556;-303.0;-150.0
18:43:44.596;-333.0;-405.0
18:43:44.636;-335.0;-671.0
18:43:44.676;1772.0;932.0
18:43:44.716;524.0;304.0
18:43:44.756;508.0;225.0
18:43:44.796;553.0;322.0
18:43:44.836;854.0;773.0
18:43:44.876;1204.0;1438.0
18:43:44.916;1233.0;1809.0
18:43:44.956;635.0;1053.0
18:43:44.996;-21.0;-141.0
18:43:45.036;-481.0;-828.0
18:43:45.076;-719.0;-1086.0
18:43:45.116;-805.0;-1245.0
18:43:45.156;-838.0;-1286.0
18:43:45.196;-823.0;-1333.0
18:43:45.236;-757.0;-1267.0
18:43:45.276;-598.0;-1106.0
18:43:45.316;-303.0;-474.0
18:43:45.356;-461.0;-784.0
18:43:45.396;-524.0;-984.0
18:43:45.436;-97.0;6794.0
18:43:45.476;-309.0;2681.0
18:43:45.516;113.0;714.0
18:43:45.556;400.0;79.0
18:43:45.596;936.0;264.0
18:43:45.636;1486.0;991.0
18:43:45.676;1528.0;1337.0
18:43:45.716;965.0;528.0
18:43:45.756;372.0;-449.0
18:43:45.796;-26.0;-865.0
18:43:45.836;-305.0;-1007.0
18:43:45.876;-419.0;-1063.0
18:43:45.916;-617.0;-1264.0
18:43:45.956;-768.0;-1364.0
18:43:45.996;-859.0;-1334.0
18:43:46.036;-830.0;-1189.0
18:43:46.076;-505.0;-542.0
18:43:46.116;-605.0;-610.0
18:43:46.156;-730.0;-859.0
18:43:46.196;1115.0;-927.0
18:43:46.236;-591.0;-693.0
18:43:46.276;-449.0;-383.0
18:43:46.316;-178.0;-24.0
18:43:46.356;263.0;560.0
18:43:46.396;770.0;1316.0
18:43:46.436;1097.0;2031.0
18:43:46.476;902.0;1697.0
18:43:46.516;517.0;842.0
18:43:46.556;386.0;394.0
18:43:46.596;320.0;214.0
18:43:46.636;260.0;104.0
18:43:46.676;143.0;-123.0
18:43:46.716;44.0;-314.0
18:43:46.756;-182.0;-631.0
18:43:46.796;-348.0;-831.0
18:43:46.836;-290.0;-532.0
18:43:46.876;-515.0;-836.0
18:43:46.916;-740.0;-1207.0
18:43:46.956;911.0;-997.0
18:43:46.996;-815.0;-999.0
18:43:47.036;-561.0;-757.0
18:43:45.973;-416.0;-505.0
18:43:46.013;285.0;1121.0
18:43:46.053;244.0;1176.0
18:43:46.093;-62.0;374.0
18:43:46.133;-149.0;10.0
18:43:46.173;-55.0;132.0
18:43:46.213;-24.0;82.0
18:43:46.253;-48.0;-50.0
18:43:46.293;-43.0;-161.0
18:43:46.333;-36.0;-69.0
18:43:46.373;39.0;340.0
18:43:46.413;-186.0;-115.0
18:43:46.453;-496.0;-566.0
18:43:46.493;-1196.0;8825.0
18:43:46.533;-1045.0;3388.0
18:43:46.573;-749.0;548.0
18:43:46.613;-418.0;-402.0
18:43:46.653;63.0;-390.0
18:43:46.693;535.0;215.0
18:43:46.733;473.0;492.0
18:43:46.773;12.0;-384.0
18:43:46.813;-348.0;-1112.0
18:43:46.853;-439.0;-1296.0
18:43:46.893;-519.0;-1302.0
18:43:46.933;-408.0;-1189.0
18:43:46.973;-364.0;-1123.0
18:43:47.013;-251.0;-712.0
18:43:47.053;7.0;-284.0
18:43:47.093;-95.0;-513.0
18:43:47.133;28.0;-710.0
18:43:47.173;-1126.0;5943.0
18:43:47.213;-410.0;2481.0
18:43:47.253;167.0;828.0
18:43:47.293;529.0;313.0
18:43:47.333;1000.0;507.0
18:43:47.373;1255.0;1127.0
18:43:47.413;999.0;1029.0
18:43:47.453;293.0;-170.0
18:43:47.493;-141.0;-986.0
18:43:47.533;-381.0;-1251.0
18:43:47.573;-485.0;-1256.0
18:43:47.613;-498.0;-1328.0
18:43:47.653;-322.0;-821.0
18:43:47.693;-368.0;-814.0
18:43:47.733;-410.0;-1102.0
18:43:47.773;567.0;-1195.0
18:43:47.813;-1404.0;-433.0
18:43:47.853;-636.0;-412.0
18:43:47.893;-174.0;-237.0
18:43:47.933;381.0;345.0
18:43:47.973;1062.0;1235.0
18:43:48.013;1519.0;2084.0
18:43:48.053;1228.0;1902.0
18:43:48.093;754.0;855.0
18:43:48.133;547.0;371.0
18:43:48.173;405.0;278.0
18:43:48.213;286.0;136.0
18:43:48.253;169.0;225.0
18:43:48.293;222.0;304.0
18:43:48.333;-170.0;-407.0
18:43:48.373;-524.0;-963.0
18:43:48.413;-1845.0;6070.0
18:43:48.453;-1299.0;1961.0
18:43:48.493;-788.0;-42.0
18:43:48.533;-329.0;-600.0
18:43:48.573;191.0;-367.0
18:43:48.613;681.0;326.0
18:43:48.653;552.0;339.0
18:43:48.693;4.0;-626.0
18:43:48.733;-358.0;-1261.0
18:43:48.773;-461.0;-1335.0
18:43:48.813;-516.0;-1280.0
18:43:48.853;-450.0;-1264.0
18:43:48.893;-360.0;-984.0
18:43:48.933;-145.0;-663.0
18:43:48.973;-118.0;-851.0
18:43:49.013;398.0;-837.0
18:43:49.053;-1374.0;472.0
18:43:49.093;-483.0;-76.0
18:43:49.133;121.0;-141.0
18:43:49.173;596.0;85.0
18:43:49.213;1002.0;709.0
18:43:49.253;1125.0;1196.0
18:43:49.293;700.0;795.0
18:43:49.333;114.0;-297.0
18:43:49.373;-215.0;-900.0
18:43:49.413;-306.0;-1030.0
18:43:49.453;-352.0;-1105.0
18:43:49.493;-400.0;-1123.0
18:43:49.533;-330.0;-761.0
18:43:49.573;-157.0;-450.0
18:43:49.613;-267.0;-797.0
18:43:49.653;-191.0;-1008.0
18:43:49.693;-1375.0;4488.0
18:43:49.733;-551.0;1815.0
18:43:49.773;151.0;646.0
18:43:49.813;668.0;424.0
18:43:49.853;1207.0;758.0
18:43:49.893;1639.0;1403.0
18:43:49.933;1464.0;1293.0
18:43:50.326;884.0;316.0
18:43:50.366;378.0;-390.0
18:43:50.406;0.0;-891.0
18:43:50.446;-307.0;-1237.0
18:43:50.486;-486.0;-1341.0
18:43:50.526;-435.0;-896.0
18:43:50.566;-655.0;-1236.0
18:43:50.606;-775.0;-1483.0
18:43:50.646;728.0;2909.0
18:43:50.686;-176.0;679.0
18:43:50.726;-281.0;-274.0
18:43:50.766;-137.0;-405.0
18:43:50.806;226.0;-20.0
18:43:50.846;753.0;741.0
18:43:50.886;861.0;1147.0
18:43:50.926;425.0;628.0
18:43:50.966;70.0;-37.0
18:43:51.006;-127.0;-256.0
18:43:51.046;-113.0;-210.0
18:43:51.086;-17.0;-160.0
18:43:51.126;-29.0;-209.0
18:43:51.166;-109.0;-266.0
18:43:51.206;-197.0;-340.0
18:43:51.246;-260.0;-398.0
18:43:51.286;-136.0;30.0
18:43:51.326;-398.0;-269.0
18:43:51.366;-723.0;-803.0
18:43:51.406;716.0;-1214.0
18:43:51.446;-1267.0;-718.0
18:43:51.486;-1068.0;-646.0
18:43:51.526;-767.0;-371.0
18:43:51.566;-311.0;130.0
18:43:51.606;282.0;911.0
18:43:51.646;584.0;1480.0
18:43:51.686;327.0;1247.0
18:43:51.726;-139.0;323.0
18:43:51.766;-381.0;-47.0
18:43:51.806;-454.0;-160.0
18:43:51.846;-404.0;-242.0
18:43:51.886;-408.0;-469.0
18:43:51.926;-329.0;-490.0
18:43:51.966;-181.0;-425.0
18:43:52.006;-19.0;-218.0
18:43:52.046;163.0;15.0
18:43:52.086;387.0;576.0
18:43:52.126;283.0;83.0
18:43:52.166;111.0;-226.0
18:43:52.206;-656.0;9006.0
18:43:52.246;-445.0;3535.0
18:43:52.286;-141.0;748.0
18:43:52.326;56.0;-382.0
18:43:52.366;433.0;-513.0
18:43:52.406;782.0;-60.0
18:43:52.446;796.0;128.0
18:43:52.486;341.0;-549.0
18:43:52.526;-33.0;-1187.0
18:43:52.566;-190.0;-1354.0
18:43:52.606;-255.0;-1349.0
18:43:52.646;-295.0;-1376.0
18:43:52.686;-273.0;-1344.0
18:43:52.726;-304.0;-1323.0
18:43:52.766;-221.0;-1209.0
18:43:52.806;-194.0;-984.0
18:43:52.846;-109.0;-812.0
18:43:52.886;91.0;-434.0
18:43:52.926;442.0;155.0
18:43:52.966;297.0;-128.0
18:43:53.006;187.0;-376.0
18:43:53.046;-997.0;7710.0
18:43:53.086;-461.0;3222.0
18:43:53.126;39.0;919.0
18:43:53.166;323.0;-18.0
18:43:53.206;674.0;-155.0
18:43:53.246;925.0;163.0
18:43:53.286;838.0;222.0
18:43:53.326;211.0;-539.0
18:43:53.366;-276.0;-1260.0
18:43:53.406;-488.0;-1438.0
18:43:53.446;-495.0;-1440.0
18:43:53.486;-534.0;-1487.0
18:43:53.526;-648.0;-1458.0
18:43:53.566;-625.0;-1453.0
18:43:53.606;-643.0;-1412.0
18:43:53.646;-517.0;-1234.0
18:43:53.686;-387.0;-1087.0
18:43:53.726;-209.0;-798.0
18:43:53.766;103.0;-91.0
18:43:53.806;-41.0;-317.0
18:43:53.846;-15.0;-468.0
18:43:53.886;1341.0;4906.0
18:43:53.926;639.0;2168.0
18:43:53.966;556.0;779.0
18:43:54.006;682.0;408.0
18:43:54.046;765.0;491.0
18:43:54.086;1107.0;991.0
18:43:54.126;1055.0;1304.0
18:43:54.166;443.0;466.0
18:43:54.206;-189.0;-619.0
18:43:54.246;-511.0;-1114.0
18:43:54.286;-671.0;-1225.0
18:43:52.448;-648.0;-1277.0
18:43:52.488;-488.0;-1148.0
18:43:52.528;-249.0;-966.0
18:43:52.568;24.0;-406.0
18:43:52.608;225.0;-87.0
18:43:52.648;122.0;-421.0
18:43:52.688;272.0;-635.0
18:43:52.728;-1197.0;3968.0
18:43:52.768;-464.0;1542.0
18:43:52.808;-25.0;279.0
18:43:52.848;215.0;-136.0
18:43:52.888;643.0;94.0
18:43:52.928;944.0;729.0
18:43:52.968;697.0;702.0
18:43:53.008;108.0;-317.0
18:43:53.048;-311.0;-1033.0
18:43:53.088;-505.0;-1193.0
18:43:53.128;-521.0;-1085.0
18:43:53.168;-471.0;-1057.0
18:43:53.208;-505.0;-1082.0
18:43:53.248;-485.0;-1021.0
18:43:53.288;-404.0;-906.0
18:43:53.328;-349.0;-783.0
18:43:53.368;-237.0;-618.0
18:43:53.408;13.0;-19.0
18:43:53.448;-99.0;-254.0
18:43:53.488;-95.0;-295.0
18:43:53.528;1061.0;6226.0
18:43:53.568;459.0;2730.0
18:43:53.608;449.0;1053.0
18:43:53.648;538.0;429.0
18:43:53.688;841.0;518.0
18:43:53.728;1196.0;1039.0
18:43:53.768;1074.0;1207.0
18:43:53.808;484.0;431.0
18:43:53.848;-148.0;-655.0
18:43:53.888;-560.0;-1167.0
18:43:53.928;-791.0;-1356.0
18:43:53.968;-860.0;-1471.0
18:43:54.008;-855.0;-1537.0
18:43:54.048;-880.0;-1549.0
18:43:54.088;-824.0;-1487.0
18:43:54.128;-701.0;-1340.0
18:43:54.168;-614.0;-1254.0
18:43:54.208;-460.0;-873.0
18:43:54.248;-314.0;-584.0
18:43:54.288;-404.0;-819.0
18:43:54.328;-174.0;-996.0
18:43:54.368;-1520.0;3248.0
18:43:54.408;-612.0;1244.0
18:43:54.448;114.0;484.0
18:43:54.488;625.0;530.0
18:43:54.528;1265.0;945.0
18:43:54.568;1779.0;1740.0
18:43:54.608;1683.0;1818.0
18:43:54.648;1100.0;774.0
18:43:54.688;546.0;-115.0
18:43:54.728;133.0;-535.0
18:43:54.768;-129.0;-744.0
18:43:54.808;-224.0;-950.0
18:43:54.848;-414.0;-1060.0
18:43:54.888;-588.0;-1150.0
18:43:54.928;-614.0;-1183.0
18:43:54.968;-633.0;-1092.0
18:43:55.008;-588.0;-930.0
18:43:55.048;-559.0;-799.0
18:43:55.088;-376.0;-363.0
18:43:55.128;-242.0;-114.0
18:43:55.168;-310.0;-277.0
18:43:55.208;-221.0;-446.0
18:43:55.248;-1666.0;5513.0
18:43:55.288;-755.0;2468.0
18:43:55.328;-49.0;1070.0
18:43:55.368;582.0;791.0
18:43:55.408;1255.0;1231.0
18:43:55.448;1684.0;1880.0
18:43:55.488;1652.0;2008.0
18:43:55.528;1098.0;1000.0
18:43:55.568;573.0;128.0
18:43:55.608;273.0;-224.0
18:43:55.648;52.0;-460.0
18:43:55.688;-187.0;-749.0
18:43:55.728;-315.0;-974.0
18:43:55.768;-437.0;-1137.0
18:43:55.808;-551.0;-1285.0
18:43:55.848;-527.0;-1338.0
18:43:55.888;-509.0;-1301.0
18:43:55.928;-443.0;-1174.0
18:43:55.968;-306.0;-953.0
18:43:56.008;-177.0;-637.0
18:43:56.048;-271.0;-896.0
18:43:56.088;-35.0;-1039.0
18:43:56.128;-1293.0;2769.0
18:43:56.168;-605.0;1006.0
18:43:56.208;-28.0;250.0
18:43:56.248;465.0;232.0
18:43:56.288;1068.0;832.0
18:43:56.328;1618.0;1777.0
18:43:56.368;1534.0;1833.0
18:43:56.408;1023.0;800.0
18:44:00.685;577.0;-57.0
18:44:00.725;-63.0;-936.0
18:44:00.765;-407.0;-1369.0
18:44:00.805;-490.0;-1523.0
18:44:00.845;-543.0;-1544.0
18:44:00.885;-508.0;-1487.0
18:44:00.925;-493.0;-1358.0
18:44:00.965;-362.0;-1219.0
18:44:01.005;-93.0;-507.0
18:44:01.045;-241.0;-724.0
18:44:01.085;-283.0;-910.0
18:44:01.125;1227.0;3385.0
18:44:01.165;275.0;1079.0
18:44:01.205;173.0;150.0
18:44:01.245;382.0;104.0
18:44:01.285;834.0;578.0
18:44:01.325;1387.0;1454.0
18:44:01.365;1504.0;1944.0
18:44:01.405;1006.0;1247.0
18:44:01.445;419.0;116.0
18:44:01.485;-16.0;-546.0
18:44:01.525;-318.0;-787.0
18:44:01.565;-539.0;-984.0
18:44:01.605;-656.0;-1228.0
18:44:01.645;-807.0;-1303.0
18:44:01.685;-956.0;-1385.0
18:44:01.725;-986.0;-1376.0
18:44:01.765;-928.0;-1156.0
18:44:01.805;-848.0;-1062.0
18:44:01.845;-777.0;-996.0
18:44:01.885;-576.0;-571.0
18:44:01.925;-437.0;-378.0
18:44:01.965;-479.0;-529.0
18:44:02.005;192.0;-668.0
18:44:02.045;-1518.0;534.0
18:44:02.085;-769.0;227.0
18:44:02.125;-176.0;179.0
18:44:02.165;376.0;543.0
18:44:02.205;1021.0;1341.0
18:44:02.245;1556.0;2278.0
18:44:02.285;1480.0;2232.0
18:44:02.325;981.0;1124.0
18:44:02.365;631.0;202.0
18:44:02.405;432.0;-165.0
18:44:02.445;248.0;-332.0
18:44:02.485;89.0;-538.0
18:44:02.525;-24.0;-669.0
18:44:02.565;-193.0;-917.0
18:44:02.605;-388.0;-1135.0
18:44:02.645;-458.0;-1283.0
18:44:02.685;-529.0;-1349.0
18:44:02.725;-500.0;-1258.0
18:44:02.765;-450.0;-900.0
18:44:02.805;-325.0;-651.0
18:44:02.845;-444.0;-846.0
18:44:02.885;-165.0;-1041.0
18:44:02.925;-1626.0;1288.0
18:44:02.965;-829.0;381.0
18:44:03.005;-278.0;88.0
18:44:03.045;157.0;273.0
18:44:03.085;630.0;883.0
18:44:03.125;1115.0;1852.0
18:44:03.165;1159.0;2073.0
18:44:03.205;698.0;1125.0
18:44:03.245;429.0;412.0
18:44:03.285;319.0;164.0
18:44:03.325;287.0;105.0
18:44:03.365;271.0;-9.0
18:44:03.405;172.0;-160.0
18:44:03.445;94.0;-339.0
18:44:03.485;-44.0;-410.0
18:44:03.525;-239.0;-589.0
18:44:03.565;-438.0;-742.0
18:44:03.605;-579.0;-829.0
18:44:03.645;-469.0;-317.0
18:44:03.685;-642.0;-502.0
18:44:03.725;-691.0;-743.0
18:44:03.765;1158.0;-137.0
18:44:03.805;-358.0;-343.0
18:44:03.845;-411.0;-293.0
18:44:03.885;-284.0;-41.0
18:44:03.925;86.0;528.0
18:44:03.965;659.0;1423.0
18:44:04.005;966.0;2177.0
18:44:04.045;658.0;1703.0
18:44:04.085;257.0;745.0
18:44:04.125;-17.0;336.0
18:44:04.165;-53.0;201.0
18:44:04.205;79.0;231.0
18:44:04.245;103.0;177.0
18:44:04.285;41.0;41.0
18:44:04.325;-54.0;-141.0
18:44:04.365;-110.0;-380.0
18:44:04.405;-234.0;-463.0
18:44:04.445;-420.0;-581.0
18:44:04.485;-573.0;-750.0
18:44:04.525;-658.0;-775.0
18:44:04.565;-624.0;-481.0
18:44:04.605;-850.0;-762.0
18:44:04.645;-941.0;-964.0
18:44:02.997;-956.0;8188.0
18:44:03.037;52.0;3869.0
18:44:03.077;761.0;2113.0
18:44:03.117;1356.0;1790.0
18:44:03.157;1125.0;1468.0
18:44:03.197;468.0;159.0
18:44:03.237;-154.0;-1011.0
18:44:03.277;-533.0;-1514.0
18:44:03.317;-686.0;-1596.0
18:44:03.357;-686.0;-1600.0
18:44:03.397;-674.0;-1566.0
18:44:03.437;-617.0;-1527.0
18:44:03.477;-556.0;-1470.0
18:44:03.517;-533.0;-1331.0
18:44:03.557;-494.0;-1172.0
18:44:03.597;-375.0;-1041.0
18:44:03.637;-281.0;-937.0
18:44:03.677;-89.0;-517.0
18:44:03.717;-4.0;-336.0
18:44:03.757;-95.0;-416.0
18:44:03.797;798.0;-719.0
18:44:03.837;-935.0;314.0
18:44:03.877;-117.0;388.0
18:44:03.917;469.0;638.0
18:44:03.957;921.0;1038.0
18:44:03.997;1369.0;1669.0
18:44:04.037;1524.0;2259.0
18:44:04.077;1046.0;1864.0
18:44:04.117;381.0;645.0
18:44:04.157;-254.0;-325.0
18:44:04.197;-500.0;-603.0
18:44:04.237;-533.0;-608.0
18:44:04.277;-528.0;-625.0
18:44:04.317;-509.0;-643.0
18:44:04.357;-528.0;-666.0
18:44:04.397;-486.0;-570.0
18:44:04.437;-419.0;-478.0
18:44:04.477;-358.0;-415.0
18:44:04.517;-295.0;-333.0
18:44:04.557;-224.0;-147.0
18:44:04.597;98.0;559.0
18:44:04.637;-33.0;359.0
18:44:04.677;-26.0;185.0
18:44:04.717;2101.0;1186.0
18:44:04.757;573.0;758.0
18:44:04.797;445.0;678.0
18:44:04.837;470.0;803.0
18:44:04.877;686.0;1161.0
18:44:04.917;1003.0;1730.0
18:44:04.957;1043.0;2235.0
18:44:04.997;522.0;1560.0
18:44:05.037;-175.0;216.0
18:44:05.077;-545.0;-628.0
18:44:05.117;-716.0;-909.0
18:44:05.157;-745.0;-972.0
18:44:05.197;-715.0;-1098.0
18:44:05.237;-643.0;-1124.0
18:44:05.277;-627.0;-1063.0
18:44:05.317;-582.0;-995.0
18:44:05.357;-535.0;-918.0
18:44:05.397;-456.0;-811.0
18:44:05.437;-411.0;-706.0
18:44:05.477;-246.0;-333.0
18:44:05.517;-56.0;-40.0
18:44:05.557;-237.0;-248.0
18:44:05.597;-99.0;-396.0
18:44:05.637;-1294.0;4195.0
18:44:05.677;-431.0;1985.0
18:44:05.717;183.0;977.0
18:44:05.757;628.0;708.0
18:44:05.797;1064.0;1015.0
18:44:05.837;1398.0;1658.0
18:44:05.877;1163.0;1569.0
18:44:05.917;481.0;297.0
18:44:05.957;-114.0;-732.0
18:44:05.997;-430.0;-1134.0
18:44:06.037;-517.0;-1215.0
18:44:06.077;-554.0;-1248.0
18:44:06.117;-584.0;-1275.0
18:44:06.157;-569.0;-1272.0
18:44:06.197;-512.0;-1204.0
18:44:06.237;-416.0;-1102.0
18:44:06.277;-356.0;-959.0
18:44:06.317;-277.0;-812.0
18:44:06.357;-115.0;-463.0
18:44:06.397;78.0;-30.0
18:44:06.437;-89.0;-230.0
18:44:06.477;-76.0;-405.0
18:44:06.517;-1230.0;9141.0
18:44:06.557;-393.0;4032.0
18:44:06.597;246.0;1476.0
18:44:06.637;698.0;467.0
18:44:06.677;1149.0;380.0
18:44:06.717;1624.0;978.0
18:44:06.757;1522.0;1166.0
18:44:06.797;772.0;124.0
18:44:06.837;89.0;-1007.0
18:44:06.877;-358.0;-1504.0
18:44:06.917;-579.0;-1599.0
18:44:06.957;-659.0;-1612.0
18:44:05.219;-712.0;-1642.0
18:44:05.259;-238.0;-1050.0
18:44:05.299;-24.0;-801.0
18:44:05.339;66.0;-615.0
18:44:05.379;316.0;-5.0
18:44:05.419;-26.0;-323.0
18:44:05.459;-392.0;-826.0
18:44:05.499;1418.0;-305.0
18:44:05.539;-426.0;-722.0
18:44:05.579;-633.0;-745.0
18:44:05.619;-617.0;-565.0
18:44:05.659;-289.0;-80.0
18:44:05.699;205.0;777.0
18:44:05.739;486.0;1573.0
18:44:05.779;192.0;1212.0
18:44:05.819;-235.0;144.0
18:44:05.859;-418.0;-392.0
18:44:05.899;-480.0;-577.0
18:44:05.939;-421.0;-562.0
18:44:05.979;-418.0;-633.0
18:44:06.019;-401.0;-732.0
18:44:06.059;-281.0;-725.0
18:44:06.099;-131.0;-588.0
18:44:06.139;70.0;-402.0
18:44:06.179;211.0;-220.0
18:44:06.219;441.0;322.0
18:44:06.259;281.0;-32.0
18:44:06.299;137.0;-241.0
18:44:06.339;-430.0;9201.0
18:44:06.379;-204.0;3663.0
18:44:06.419;27.0;998.0
18:44:06.459;142.0;-153.0
18:44:06.499;351.0;-353.0
18:44:06.539;676.0;194.0
18:44:06.579;668.0;476.0
18:44:06.619;176.0;-294.0
18:44:06.659;-229.0;-1147.0
18:44:06.699;-455.0;-1452.0
18:44:06.739;-495.0;-1420.0
18:44:06.779;-415.0;-1301.0
18:44:06.819;-380.0;-1309.0
18:44:06.859;-344.0;-1278.0
18:44:06.899;-344.0;-1175.0
18:44:06.939;-284.0;-1107.0
18:44:06.979;-171.0;-825.0
18:44:07.019;198.0;-119.0
18:44:07.059;151.0;-67.0
18:44:07.099;101.0;-239.0
18:44:07.139;1416.0;-577.0
18:44:07.179;-625.0;167.0
18:44:07.219;-238.0;-50.0
18:44:07.259;18.0;73.0
18:44:07.299;237.0;278.0
18:44:07.339;567.0;799.0
18:44:07.379;688.0;1524.0
18:44:07.419;269.0;1159.0
18:44:07.459;-245.0;52.0
18:44:07.499;-524.0;-593.0
18:44:07.539;-668.0;-757.0
18:44:07.579;-660.0;-775.0
18:44:07.619;-605.0;-864.0
18:44:07.659;-529.0;-920.0
18:44:07.699;-447.0;-912.0
18:44:07.739;-365.0;-788.0
18:44:07.779;-217.0;-374.0
18:44:07.819;-90.0;-134.0
18:44:07.859;-199.0;-478.0
18:44:07.899;21.0;-651.0
18:44:07.939;-1065.0;5148.0
18:44:07.979;-232.0;2345.0
18:44:08.019;353.0;998.0
18:44:08.059;770.0;623.0
18:44:08.099;1225.0;939.0
18:44:08.139;1608.0;1596.0
18:44:08.179;1356.0;1572.0
18:44:08.219;637.0;358.0
18:44:08.259;12.0;-705.0
18:44:08.299;-386.0;-1107.0
18:44:08.339;-473.0;-1205.0
18:44:08.379;-564.0;-1274.0
18:44:08.419;-550.0;-1281.0
18:44:08.459;-533.0;-1260.0
18:44:08.499;-526.0;-1136.0
18:44:08.539;-472.0;-1008.0
18:44:08.579;-355.0;-780.0
18:44:08.619;-129.0;-146.0
18:44:08.659;-256.0;-414.0
18:44:08.699;-329.0;-585.0
18:44:08.739;68.0;7632.0
18:44:08.779;-28.0;3389.0
18:44:08.819;264.0;1301.0
18:44:08.859;545.0;502.0
18:44:08.899;985.0;547.0
18:44:08.939;1401.0;1238.0
18:44:08.979;1341.0;1581.0
18:44:09.019;717.0;778.0
18:44:09.059;42.0;-351.0
18:44:09.099;-259.0;-777.0
18:44:09.139;-464.0;-970.0
18:44:09.179;-636.0;-1131.0
18:44:06.386;-784.0;-1344.0
18:44:06.426;-708.0;-1246.0
18:44:06.466;-657.0;-1256.0
18:44:06.506;-332.0;-639.0
18:44:06.546;-234.0;-604.0
18:44:06.586;-289.0;-716.0
18:44:06.626;1587.0;-683.0
18:44:06.666;1.0;-474.0
18:44:06.706;182.0;-233.0
18:44:06.746;419.0;98.0
18:44:06.786;698.0;541.0
18:44:06.826;1093.0;1334.0
18:44:06.866;1239.0;1913.0
18:44:06.906;748.0;1430.0
18:44:06.946;118.0;90.0
18:44:06.986;-365.0;-725.0
18:44:07.026;-599.0;-1068.0
18:44:07.066;-688.0;-1068.0
18:44:07.106;-729.0;-1117.0
18:44:07.146;-728.0;-1163.0
18:44:07.186;-691.0;-1051.0
18:44:07.226;-642.0;-895.0
18:44:07.266;-558.0;-411.0
18:44:07.306;-449.0;-157.0
18:44:07.346;-521.0;-413.0
18:44:07.386;-256.0;-596.0
18:44:07.426;-1713.0;2467.0
18:44:07.466;-922.0;1110.0
18:44:07.506;-341.0;524.0
18:44:07.546;131.0;582.0
18:44:07.586;759.0;1295.0
18:44:07.626;1300.0;2195.0
18:44:07.666;1267.0;2334.0
18:44:07.706;855.0;1304.0
18:44:07.746;541.0;420.0
18:44:07.786;322.0;63.0
18:44:07.826;119.0;-89.0
18:44:07.866;-85.0;-359.0
18:44:07.906;-348.0;-707.0
18:44:07.946;-447.0;-846.0
18:44:07.986;-554.0;-1005.0
18:44:08.026;-632.0;-1052.0
18:44:08.066;-503.0;-502.0
18:44:08.106;-590.0;-561.0
18:44:08.146;-664.0;-813.0
18:44:08.186;716.0;-806.0
18:44:08.226;-875.0;-472.0
18:44:08.266;-584.0;-330.0
18:44:08.306;-249.0;-46.0
18:44:08.346;106.0;425.0
18:44:08.386;579.0;1272.0
18:44:08.426;931.0;2003.0
18:44:08.466;707.0;1691.0
18:44:08.506;372.0;763.0
18:44:08.546;296.0;371.0
18:44:08.586;268.0;321.0
18:44:08.626;316.0;334.0
18:44:08.666;280.0;188.0
18:44:08.706;213.0;-1.0
18:44:08.746;96.0;-199.0
18:44:08.786;-72.0;-408.0
18:44:08.826;-159.0;-528.0
18:44:08.866;-43.0;-292.0
18:44:08.906;-413.0;-704.0
18:44:08.946;-697.0;-1088.0
18:44:08.986;503.0;2937.0
18:44:09.026;-401.0;660.0
18:44:09.066;-493.0;-349.0
18:44:09.106;-387.0;-496.0
18:44:09.146;26.0;-220.0
18:44:09.186;575.0;502.0
18:44:09.226;768.0;1024.0
18:44:09.266;352.0;494.0
18:44:09.306;-15.0;-412.0
18:44:09.346;-201.0;-784.0
18:44:09.386;-160.0;-805.0
18:44:09.426;-170.0;-602.0
18:44:09.466;-113.0;-623.0
18:44:09.506;38.0;-537.0
18:44:09.546;98.0;-417.0
18:44:09.586;133.0;-357.0
18:44:09.626;122.0;-131.0
18:44:09.666;-3.0;-41.0
18:44:09.706;-431.0;-655.0
18:44:09.746;-295.0;-1009.0
18:44:09.786;-1760.0;2236.0
18:44:09.826;-1181.0;368.0
18:44:09.866;-721.0;-550.0
18:44:09.906;-263.0;-627.0
18:44:09.946;296.0;-153.0
18:44:09.986;834.0;680.0
18:44:10.026;732.0;853.0
18:44:10.066;295.0;-40.0
18:44:10.106;-75.0;-760.0
18:44:10.146;-170.0;-805.0
18:44:10.186;-174.0;-772.0
18:44:10.226;-155.0;-787.0
18:44:10.266;-101.0;-761.0
18:44:10.306;66.0;-605.0
18:44:10.346;232.0;-427.0
18:44:13.707;283.0;-341.0
18:44:13.747;177.0;-473.0
18:44:13.787;899.0;-623.0
18:44:13.827;-1034.0;121.0
18:44:13.867;-567.0;-209.0
18:44:13.907;-331.0;-272.0
18:44:13.947;-71.0;-66.0
18:44:13.987;361.0;567.0
18:44:14.027;657.0;1298.0
18:44:14.067;449.0;1184.0
18:44:14.107;-34.0;208.0
18:44:14.147;-303.0;-386.0
18:44:14.187;-379.0;-467.0
18:44:14.227;-403.0;-486.0
18:44:14.267;-355.0;-532.0
18:44:14.307;-343.0;-589.0
18:44:14.347;-349.0;-613.0
18:44:14.387;-258.0;-545.0
18:44:14.427;-208.0;-520.0
18:44:14.467;-72.0;-68.0
18:44:14.507;124.0;186.0
18:44:14.547;165.0;18.0
18:44:14.587;485.0;-65.0
18:44:14.627;-1081.0;4014.0
18:44:14.667;-265.0;1890.0
18:44:14.707;211.0;823.0
